Ω(THz2π)|T(K)|Reχ(ω₀/m₀)    0.47999999999999954	49.999999999999964	99.99999999999993	149.9999999999999	199.99999999999986	249.99999999999977	299.9999999999998	349.9999999999997	399.9999999999997
1.2807708589249821e-15	1.5535102057497328e-29	1.4993134404739402e-32	5.35373997583608e-33	2.9153587875394482e-33	-1.5155981532583615e-32	-9.884948815297656e-33	-4.711275357065255e-33	-3.250806614318292e-33	-2.650920870457542e-33
0.05773853016017685	-4.357247905593741e-6	-8.084581795674579e-6	-5.991003192902359e-6	-1.6589646010342065e-6	1.3350826995259771e-6	3.206404844099442e-6	4.3767265333428285e-6	5.118645608673716e-6	5.5929543617112e-6
0.11547706032035242	-1.7430656641290916e-5	-3.234130975427506e-5	-2.3960982607034077e-5	-6.632732310895573e-6	5.342658408100541e-6	1.2827276214852371e-5	1.750814292604469e-5	2.0475522389313626e-5	2.237251978862811e-5
0.17321559048052798	-3.922522332934666e-5	-7.277912630416618e-5	-5.390084938284587e-5	-1.4911906124518509e-5	1.2029733783792925e-5	2.8867700060124396e-5	3.939793813886958e-5	4.607341723518754e-5	5.034083832953302e-5
0.23095412064070356	-6.974928558095347e-5	-0.00012941292220225255	-9.579542570812241e-5	-2.6480874186546143e-5	2.1408001436553996e-5	5.133615508566824e-5	7.005238716254047e-5	8.191701161435859e-5	8.950160904811048e-5
0.28869265080087914	-0.00010901453469919074	-0.00020226351235149657	-0.00014962345534211768	-4.131767857093315e-5	3.349391431520737e-5	8.024446030289804e-5	0.00010948020331071878	0.00012801287125206295	0.00013985970019277208
0.3464311809610547	-0.000157036034468684	-0.00029135760720607807	-0.0002153575262880162	-5.9394200649632564e-5	4.830832794588426e-5	0.00011560782072958647	0.00015769237892390906	0.00018436931976545203	0.00020142176247973424
0.40416971112123024	-0.00021383224492429692	-0.00039672777151011717	-0.0002929640406901703	-8.067587205910185e-5	6.587713835963617e-5	0.00015744476603665546	0.00021470278585311112	0.0002509967115612348	0.00027419587185455944
0.46190824128140584	-0.0002794250523890758	-0.0005184123752913178	-0.0003824031691982392	-0.0001051219015570621	8.623080448439314e-5	0.0002057775780702732	0.00028052754764919523	0.0003279073193716737	0.00035819075665001254
0.5196467714415813	-0.00035383980491202863	-0.0006564555335991102	-0.0004836288152823477	-0.00013268524546347293	0.00010940437095128302	0.0002606313657568921	0.00035518527709525125	0.00041511491637275275	0.0004534177262827425
0.5773853016017569	-0.0004371053529226392	-0.0008109070354578493	-0.0005965884018357823	-0.00016331222671700344	0.00013543775247413652	0.0003220351504695465	0.00043869723626570854	0.0005126356982701264	0.0005598893011299924
0.6351238317619324	-0.0005292540970486537	-0.0009818222614390798	-0.0007212230602333477	-0.0001969430486075331	0.00016437561201169102	0.0003900210632609364	0.0005310867760714642	0.0006204870079587149	0.0006776184232493529
0.692862361922108	-0.0006303220397966366	-0.00116926210631871	-0.0008574672108873247	-0.00023351134578673358	0.00019626738908533892	0.00046462472327571603	0.0006323803930146225	0.0007386891185855882	0.0008066213835214752
0.7506008920822836	-0.0007403488467965942	-0.0013732928369685634	-0.001005248735506935	-0.00027294435269800335	0.00023116682951692562	0.000545885075587716	0.0007426063649656258	0.0008672630857749032	0.0009469128799901104
0.8083394222424591	-0.0008593779135635909	-0.0015939860297072717	-0.0011644885422846215	-0.00031516268143033893	0.00026913333565307414	0.000633844885718182	0.0008617962116095957	0.0010062322754664918	0.001098512679026493
0.8660779524026347	-0.0009874564335726373	-0.0018314183789750018	-0.0013351008633354284	-0.0003600805783744539	0.0003102296113373364	0.0007285494723365099	0.0009899831581772379	0.0011556222947035435	0.0012614396374307374
0.9238164825628103	-0.001124635484106715	-0.002085671590064178	-0.001516992780722686	-0.0004076056086922536	0.00035452492667535494	0.0008300486699869771	0.0011272036738094	0.0013154603018047063	0.001435714844014207
0.981555012722986	-0.0012709701097287048	-0.002356832202715916	-0.0017100640652112512	-0.0004576382392456592	0.0004020928281357676	0.0009383954778089644	0.001273496718381132	0.0014857753298077574	0.0016213606966039113
1.0392935428831616	-0.0014265194191121148	-0.002644991414584385	-0.0019142074197458674	-0.0005100732032976958	0.0004530107733399809	0.0010536454892389844	0.0014289027915336927	0.0016665983743861588	0.0018184009172900618
1.0970320730433372	-0.0015913466866385765	-0.002950244870940167	-0.0021293077433075687	-0.0005647976861091321	0.0005073622367753464	0.001175859023781571	0.0015934663273118967	0.001857962243210045	0.0020268610841985345
1.1547706032035128	-0.0017655194657136442	-0.0032726924617656125	-0.002355242359439088	-0.0006216923775546309	0.0005652347774739242	0.0013050986944388515	0.0017672328726917232	0.002059901531287358	0.002246767208486999
1.2125091333636884	-0.0019491097080418013	-0.003612438065655155	-0.0025918806866652724	-0.0006806307142291659	0.0006267212520488929	0.0014414318241366467	0.0019502520761601532	0.002272452566232597	0.0024781475470629657
1.2702476635238638	-0.002142193894505693	-0.003969589288289306	-0.002839083978923253	-0.0007414797521354052	0.0006919201377982611	0.0015849283437851767	0.0021425747447140556	0.002495654544961495	0.0027210325140893474
1.3279861936840396	-0.0023448531765277096	-0.00434425720668545	-0.003096705239358065	-0.0008040989599041474	0.0007609331838551888	0.0017356617014369139	0.0023442549014032004	0.0027295478912116346	0.0029754542165361018
1.385724723844215	-0.002557173522998576	-0.004736555979131332	-0.003364588834662113	-0.0008683410413525631	0.0008338690653021199	0.0018937097092756817	0.0025553494467220506	0.0029741751559640116	0.0032414419196550854
1.4434632540043906	-0.0027792458891044377	-0.005146602579264078	-0.003642570423827669	-0.0009340514535977558	0.0009108399828035695	0.0020591527096661343	0.0027759159603867726	0.003229579113679717	0.0035190323751208277
1.5012017841645662	-0.003011166383798107	-0.005574516390700898	-0.003930476546774676	-0.0010010679713346787	0.0009919638033078102	0.0022320749075957344	0.0030060176431698036	0.0034958082208784618	0.003808260750749238
1.5589403143247418	-0.003253036461887163	-0.00602041876444769	-0.004228124264551255	-0.001069221625350215	0.001077364241225444	0.002412564651903719	0.003245718344007032	0.003772909363734745	0.004109163241363787
1.6166788444849172	-0.0035049631247978364	-0.006484432618192153	-0.00453532145267762	-0.0011383355715709116	0.0011671688236894848	0.0026007136315221945	0.0034950845941426997	0.00406093216306569	0.00442177891367976
1.6744173746450928	-0.0037670591298749516	-0.006966681940719224	-0.004851865676896086	-0.0012082255535244553	0.0012615105310242642	0.002796616092395446	0.0037541852974620833	0.004359929429288099	0.004746147669714235
1.7321559048052684	-0.0040394432355463986	-0.007467291247271549	-0.005177544346564572	-0.0012786994295151547	0.0013605289846370125	0.003000371790482797	0.004023093038817648	0.004669954652648822	0.0050823110960435645
1.789894434965444	-0.0043222404330665026	-0.007986385030132314	-0.0055121344813506	-0.001349557536862419	0.0014643671042750548	0.003212082377857352	0.00430188272952497	0.004991064050277814	0.005430311609879953
1.8476329651256196	-0.004615582227794979	-0.008524087118353939	-0.005855402136387062	-0.0014205921236675673	0.0015731741298754694	0.0034318542380880573	0.004590630764643936	0.00532331513483321	0.005790194235432958
1.905371495285795	-0.0049196069168155636	-0.009080520017086195	-0.006207102208633367	-0.0014915879061604385	0.0016871047323608489	0.003659797035596705	0.0048894173148835976	0.00566676729780304	0.006162003813406506
1.9631100254459708	-0.005234459902002892	-0.009655804171271052	-0.006566977836128356	-0.0015623209064371574	0.0018063185645663111	0.003896024256079823	0.005198324645337515	0.006021482862306088	0.006545788806935044
2.0208485556061464	-0.005560294019000379	-0.010250057181372728	-0.0069347603825291836	-0.001632559056493692	0.001930980850424243	0.004140652928632441	0.005517438065476376	0.006387525069351128	0.006941597368990565
2.078587085766322	-0.005897269887682892	-0.010863392951302921	-0.0073101685689382755	-0.0017020623360472081	0.002061262625112812	0.004393803987212564	0.005846845842104584	0.006764959688616976	0.007349481349885198
2.136325615926497	-0.006245556307047615	-0.01149592074885132	-0.007692908634357988	-0.0017705816141719711	0.0021973393548374324	0.004655601680466739	0.006186637610655602	0.007153854253238951	0.007769489564760672
2.194064146086673	-0.006605330651627881	-0.012147744183401837	-0.008082673203441804	-0.0018378591520984945	0.0023393942289502037	0.004926174996877366	0.006536906991026395	0.0075542787581144265	0.00820167766800468
2.2518026762468484	-0.00697677933019951	-0.012818960281487228	-0.00847914147898374	-0.0019036292870912759	0.0024876136516732124	0.005205656399812575	0.006897750174395021	0.00796630417317019	0.008646100675212274
2.309541206407024	-0.007360098245274308	-0.013509658056096462	-0.008881978323832335	-0.001967616587917936	0.00264219095510398	0.005494180667905908	0.007269264662841179	0.008390004678630412	0.009102814429845825
2.3672797365671996	-0.007755493333443414	-0.014219917498907681	-0.009290834236837438	-0.0020295366301510214	0.002803325617931357	0.005791889253105687	0.007651552818032916	0.00882545486584353	0.009571876112602958
2.4250182667273754	-0.008163181104512795	-0.014949807996391822	-0.009705344109356482	-0.002089096275483498	0.0029712216019102382	0.006098924527220851	0.008044717025504057	0.00927273237845004	0.010053345521444238
2.482756796887551	-0.008583389241868546	-0.015699387155365573	-0.010125127551250659	-0.002145992265765714	0.0031460901889191727	0.0064154354038165155	0.008448866122460322	0.009731918381195491	0.010547285269802214
2.540495327047726	-0.009016357267213698	-0.01646869887025962	-0.010549787720442638	-0.002199912500537639	0.0033281478739014456	0.0067415733495330855	0.008864108737719522	0.010203092305656488	0.011053755251560531
2.5982338572079016	-0.009462337243684447	-0.017257771985156538	-0.010978911079549285	-0.0022505347751436517	0.0035176165962146487	0.007077492992928803	0.009290556835100716	0.01068633893376281	0.011572820726514109
2.655972387368078	-0.009921594535302069	-0.018066618215513263	-0.011412066544720484	-0.002297527300620788	0.0037147250158182914	0.00742335476133345	0.009728325212950356	0.01118174357348965	0.012104546966241515
2.713710917528253	-0.010394408633710751	-0.018895230191351448	-0.011848805346508316	-0.0023405470147155384	0.003919708001663513	0.00777932184797387	0.010177532674858526	0.011689394475420162	0.012649002311263681
2.7714494476884286	-0.010881074090253422	-0.019743579549813012	-0.012288659761049106	-0.002379242654457138	0.004132806887472601	0.008145561782715168	0.010638299016041687	0.012209379355647679	0.013206252027369601
2.829187977848604	-0.011381901471527777	-0.02061161438265599	-0.012731142790356472	-0.002413250789810135	0.0043542685592601145	0.008522248269876484	0.011110748857552722	0.012741793002126285	0.013776370251970245
2.88692650800878	-0.011897218445632326	-0.021499257010555394	-0.013175747774022058	-0.002442198458265126	0.00458434440386278	0.008909553196985547	0.011595006474283394	0.013286727292296694	0.014359426637156876
2.944665038168955	-0.012427370954335501	-0.0224064011455305	-0.013621947097077255	-0.002465701397555259	0.0048232974912046775	0.009307659151896828	0.012091202831646514	0.01384427888787263	0.01495549540966848
3.002403568329131	-0.012972724510029265	-0.02333290928046676	-0.014069191716138376	-0.0024833634857333734	0.0050713924977037915	0.009716750478311853	0.012599469997534416	0.01441454473023133	0.015564649476807772
3.0601420984893064	-0.01353366558761503	-0.02427860951529718	-0.014516910648769595	-0.002494779001332034	0.0053289019079422965	0.010137014602318292	0.013119941621192267	0.014997625548503592	0.016186967020889224
3.1178806286494822	-0.014110603176415834	-0.02524329223446765	-0.014964509855904777	-0.002499529112209375	0.0055961057435137684	0.010568644150897472	0.013652756452591855	0.015593623369611873	0.016822527032675522
3.1756191588096576	-0.014703970464939393	-0.02622670693329619	-0.015411371779149446	-0.002497184662444232	0.005873290383075453	0.011011836541141224	0.014198055836638595	0.01620264418666955	0.017471405105595524
3.233357688969833	-0.015314226764497304	-0.027228557958043156	-0.015856853630658224	-0.002487303614614564	0.006160748133208983	0.0114667931155112	0.014755982839153848	0.016824791170378266	0.018133686051505966
3.2910962191300084	-0.01594185950121806	-0.028248500822181187	-0.016300287933775096	-0.002469431769631033	0.00645877872097201	0.01193371653541782	0.015326684368837556	0.017460175804894916	0.018809451190921606
3.348834749290184	-0.016587386591167715	-0.02928613791583163	-0.016740980696473413	-0.002443103936223895	0.006767689967110541	0.012412820056115435	0.015910307206353988	0.018108904685860933	0.019498783921957377
3.40657327945036	-0.017251358893527836	-0.030341013842319124	-0.017178209696473427	-0.0024078399059347926	0.007087794695787007	0.012904317461710566	0.016507008463164236	0.018771095605293945	0.02020177260125325
3.4643118096105354	-0.017934363132432695	-0.03141260994527628	-0.017611226312271792	-0.0023631476961405314	0.007419414626421304	0.013408425928499819	0.01711694230336667	0.01944686065512929	0.020918502959079623
3.522050339770711	-0.01863702496397436	-0.03250033999197703	-0.018039250883688344	-0.002308523182111527	0.0077628771762507315	0.013925369855441759	0.01774026707379145	0.02013631820128704	0.021649065393057065
3.5797888699308866	-0.019360012532039846	-0.03360354360556355	-0.01846147476795236	-0.002243447602350234	0.00811851838540178	0.014455375949573366	0.01837714361242058	0.020839585933500222	0.022393548553420704
3.6375274000910616	-0.020104040419861323	-0.03472148035157584	-0.01887705730882183	-0.002167387999059018	0.008486680944936832	0.014998677596107205	0.019027738278021948	0.02155678679557887	0.023152061162360797
3.695265930251238	-0.020869874070083328	-0.035853323800285816	-0.01928512552319993	-0.00207979957242456	0.008867716923757792	0.015555512546375235	0.019692218504126814	0.022288045711084205	0.023924654968255774
3.7530044604114137	-0.02165833479989649	-0.036998153565722454	-0.019684773939326588	-0.0019801208253954652	0.009261979442897174	0.016126119691039276	0.020370755147049873	0.02303348424328007	0.024711465650061167
3.8107429905715886	-0.022470305434653906	-0.038154948539505955	-0.020075060317052706	-0.0018677765299822105	0.009669839044531158	0.01671074450056292	0.021063519370109373	0.0237932319296163	0.025512576090848522
3.8684815207317644	-0.023306736773745073	-0.0393225788176459	-0.02045500818352839	-0.0017421771047952167	0.010091667274890793	0.01730964395487033	0.021770694062304457	0.024567422150677025	0.026328089428751342
3.9262200508919403	-0.02416865483455009	-0.04049979683998923	-0.020823603586213473	-0.0016027176502000685	0.010527847426199286	0.01792306865902413	0.022492456377970562	0.025356185052761878	0.02715810263744265
3.983958581052115	-0.025057169310427663	-0.04168522824518238	-0.021179793574413387	-0.0014487772703641487	0.010978767280509288	0.018551281917841677	0.023228991416796685	0.02615965652690849	0.02800272016911212
4.041697111212291	-0.0259734830764287	-0.04287736241605926	-0.021522485877395567	-0.001279718938722272	0.011444824603633429	0.019194547115327493	0.0239804843285764	0.02697797155981917	0.028862044187663777
4.099435641372466	-0.026918903389024466	-0.04407454204172655	-0.021850546805638128	-0.0010948908071492054	0.011926425848588702	0.019853135640813615	0.024747125165598786	0.027811270957427865	0.029736180230048044
4.157174171532642	-0.02789485459307178	-0.04527495124054087	-0.022162800104207667	-0.0008936232357774485	0.012423984362065134	0.02052732202496186	0.02552910882080839	0.028659697221643295	0.030625237741418773
4.214912701692818	-0.02890289324500146	-0.04647660450502488	-0.022458025753479938	-0.0006752310063738941	0.012937924675871364	0.021217389639611003	0.026326632630307982	0.029523393456761107	0.03152932248876406
4.272651231852993	-0.029944725433797097	-0.04767733300393457	-0.022734957545130944	-0.0004390099843159489	0.01346867634896918	0.021923620466059397	0.02713989354602006	0.030402505355871252	0.03244854689739923
4.330389762013168	-0.03102222759667602	-0.04887477211544693	-0.022992282711251904	-0.00018423996927108697	0.014016680369512263	0.022646307362631256	0.02796909746222201	0.031297182962306755	0.03338302565089858
4.388128292173344	-0.0321374707796151	-0.05006634574444249	-0.02322863945283013	8.981807307576048e-5	0.014582384955583226	0.023385744796770594	0.028814449388615243	0.03220757180422579	0.034332866862205644
4.445866822333519	-0.03329274991159547	-0.051249251132027024	-0.023442614889155423	0.00038392135684821516	0.015166249116346607	0.024142234691366907	0.029676161868104386	0.033133835888607084	0.03529819435629049
4.503605352493695	-0.03449061883373463	-0.05242044281646828	-0.02363274479587414	0.0006988449602177454	0.01576873893660732	0.0249160827367047	0.030554444039958963	0.03407612121136792	0.0362791191044596
4.561343882653871	-0.03573393250456356	-0.05357661371006058	-0.023797510944027343	0.0010353846170779299	0.016390331965571662	0.025707601437687955	0.03144951707803352	0.035034590289890186	0.03727576324888188
4.619082412814047	-0.03702589908582736	-0.05471417719458799	-0.0239353383401216	0.001394353156399993	0.017031509650795	0.026517105236168945	0.032361599212343495	0.03600940204574224	0.03828824805168415
4.6768209429742225	-0.03837014353960299	-0.05582924702353972	-0.024044595782827805	0.0017765866317057918	0.01769277444942713	0.02734492085513555	0.03329091700597718	0.03700072063800794	0.03931669450423123
4.734559473134397	-0.039770787218547154	-0.05691761453634175	-0.024123590476793518	0.002182939934966183	0.018374626417944455	0.0281913757052735	0.03423769319638551	0.038008709216970554	0.040361229213484846
4.792298003294573	-0.04123254797498469	-0.05797472682729307	-0.024170569474229357	0.0026142851844643223	0.019077580338629593	0.02905679848760729	0.035202160718278266	0.039033536026090325	0.04142197506125472
4.850036533454749	-0.04276086797451749	-0.0589956619583344	-0.024183715034112922	0.003071523529017715	0.019802158691614516	0.029941531129538006	0.03618455435770147	0.04007537211653538	0.04249906470420567
4.907775063614924	-0.04436207874960426	-0.059975102539145585	-0.02416114332677463	0.0035555705329841846	0.020548899645540186	0.030845920471987434	0.037185112595435256	0.041134388995775775	0.043592624479482214
4.9655135937751	-0.04604361843043689	-0.06090730792911086	-0.02410090324560514	0.004067367479676151	0.021318346957155506	0.03177031520814244	0.03820407708939913	0.042210764438103635	0.04470278799629768
5.023252123935275	-0.047814322126072194	-0.061786084115602186	-0.024000972201174607	0.004607877767957924	0.02211105627403793	0.03271507230357354	0.03924169276751958	0.043304674226775405	0.045829689467298165
5.080990654095451	-0.04968481834358885	-0.06260475329191546	-0.023859255388975282	0.005178087850689591	0.022927590638980883	0.03368055000389436	0.04029820669522555	0.04441629564805231	0.04697346105413622
5.138729184255626	-0.0516680831512384	-0.06335611835631459	-0.023673580625779102	0.005779006934928412	0.023768528481227763	0.03466712232873039	0.04137387490377046	0.04554581510767604	0.04813424099763767
5.196467714415801	-0.05378023635466425	-0.06403242764018673	-0.0234417005574435	0.0064116708552351305	0.02463445798877144	0.03567516079856696	0.042468953031614375	0.04669341735185367	0.04931217017490327
5.254206244575977	-0.05604172207177162	-0.06462533684066574	-0.023161285436416622	0.0070771357793396016	0.02552597595065577	0.03670504458019569	0.04358369884991539	0.04785928801997742	0.0505073862736
5.311944774736154	-0.05847913070448167	-0.06512586720275103	-0.022829923167481243	0.007776489106602784	0.02644369170418882	0.03775716421478302	0.044718382331383	0.049043619396239614	0.05172003700976723
