T(K)	v(THz2π)	w(THz2π)	E(meV)	M(mₑ)	R(Å)	κ(N/m)	ReΣ(ps⁻¹)	ImΣ(ps⁻¹)	μ(cm²V⁻¹s⁻¹)
1.0	5.39335565195796	4.178441187990888	-17.89794550927979	0.1999266909617534	67.6673703776506	5.018444818242895e-5	2.1997407628081616e-12	2.708577401343443e-5	5.411266229952165e8
2.0	5.339657332795861	4.106031511706669	-17.41353557761136	0.20293804158646062	66.8583594761779	5.0285996936368647e-5	7.953222716405381e-13	9.951104349729566e-6	1.4728851098320236e9
3.0	5.285994461519559	4.032600878818287	-16.99938125602948	0.20618837347969424	66.03104929714519	5.040433601926395e-5	4.433756582300233e-13	5.394888899999714e-6	2.7167998627556796e9
4.0	5.232680288072688	3.958340189139513	-16.63202664319484	0.20970240710728041	65.18302819106637	5.054510011617062e-5	2.953707174024253e-13	2.120586830467641e-6	6.911687469014968e9
5.0	5.180236636067175	3.883618951149184	-16.30053488443047	0.21350459227725144	64.31082716778141	5.071715650673507e-5	2.1712414731784486e-13	0.00017784643439246046	8.241286069732256e7
6.0	5.129636479571902	3.809209234456581	-15.998729877007017	0.21761296556192336	63.40888050422432	5.0936124283102955e-5	1.6996229114303733e-13	0.0020412937232594753	7.180168760670943e6
7.0	5.082667992930549	3.73663626713872	-15.722915451912272	0.22202561438179502	62.46856570680042	5.122943903903502e-5	1.3899841948315426e-13	0.01132611611392719	1.2940740917425829e6
8.0	5.04205366810678	3.6683263985595405	-15.470932788846374	0.22670454750591112	61.47934812466259	5.1637784782386395e-5	1.1738366591706465e-13	0.04030466268655358	363651.0628332629
9.0	5.011016469741779	3.607253952120567	-15.241585953879177	0.23156849362647894	60.43262871001482	5.22088031594006e-5	1.0148492486550239e-13	0.10691097122693162	137093.8197913331
10.0	4.992485237122219	3.5562382147882983	-15.034195198946614	0.23650108401155853	59.326099344431384	5.29859088118356e-5	-2.759361921425231e-14	0.23118527711529469	63398.64547599126
11.0	4.988406733474687	3.5173065497192466	-14.848263370038945	0.24137068229311026	58.16587731057768	5.399865806956299e-5	-2.3841029597331116e-14	0.4313410625942661	33979.68497353119
12.0	4.999478762084003	3.49141670911056	-14.683266838649194	0.24605224372232787	56.96543758578869	5.5258957180164866e-5	-2.6437067134785857e-14	0.7210897543887346	20325.948793331438
13.0	5.025301771447467	3.478551272503082	-14.538555090977797	0.25044289811327297	55.74238639819041	5.6763084855199925e-5	2.6000341791840783e-13	1.1085224575823545	13221.954433893348
14.0	5.064746171413979	3.478013925750856	-14.413325767615211	0.25446847231992165	54.51490586638441	5.849676326092943e-5	-1.6879170837055904e-13	1.5963932240272212	9181.21751113837
15.0	5.116328706897772	3.4887469618097646	-14.306642423630455	0.25808287069274616	53.29916644084103	6.044042119997994e-5	1.3934746959902682e-13	2.182902930708238	6714.377087920252
16.0	5.178490390389763	3.5095726024434333	-14.217471050170904	0.26126373622985477	52.108052326311466	6.257313050213693e-5	1.2883561345442905e-13	2.862907422340314	5119.562479991049
17.0	5.249759603734409	3.539339814152189	-14.144720710854658	0.2640070695034539	50.95092343838305	6.487495477364775e-5	1.1949429081976335e-13	3.6288598029757786	4038.9638120167388
18.0	5.328827077005222	3.576996806794981	-14.0872806130354	0.2663222160831941	49.83397154066631	6.732806099584187e-5	1.1112186956202831e-13	4.471989739709624	3277.4747430554394
19.0	5.414566485463093	3.621616685072781	-14.04405037139824	0.2682277230676515	48.76081403166153	6.991705620407835e-5	1.0356721456379137e-13	5.3829772126417765	2722.8117162896747
20.0	5.506026683495588	3.6723978959306742	-14.01396275606151	0.26974810956753414	47.73311225284185	7.262891238293216e-5	9.67141065172129e-14	6.351685717814084	2307.550164516873
21.0	5.602411809130974	3.7286531702206642	-13.995999506008099	0.2709114289658095	46.75111478434536	7.545270957768602e-5	9.047097091724891e-14	7.369175165184542	1988.9381232715368
22.0	5.703058102751768	3.7897945482779494	-13.9892013266955	0.2717474672412511	45.814094334359154	7.837932461839011e-5	8.476399921788723e-14	8.426052610052778	1739.466165404058
23.0	5.807411711640772	3.8553182629996434	-13.992673311033403	0.27228643572566646	44.92068049706731	8.140112848245215e-5	7.953246788507352e-14	9.514370211968153	1540.4943361006165
24.0	5.9150091429060065	3.9247910508494637	-14.005586934207237	0.27255804493095664	44.069104207998585	8.451171754445914e-5	7.472550310124634e-14	10.62714365540372	1379.1884158495036
25.0	6.025460814046612	3.997838424475629	-14.027179597726377	0.27259086843327324	43.257372358377886	8.7705686582134e-5	7.029980881628903e-14	11.75716098741921	1246.6303250236138
26.0	6.138437536526283	4.074134900029301	-14.056752503551643	0.2724119267319838	42.48338960248814	9.097844205999439e-5	6.621804534706136e-14	12.897745028035642	1136.3872825243495
27.0	6.253659553277431	4.153395969376274	-14.093667458133439	0.2720464363621039	41.74504132787394	9.432605085735967e-5	6.244765254903345e-14	14.043807067158983	1043.6510095169224
28.0	6.37088770371033	4.235371547000469	-14.137343052044109	0.27151768163087375	41.040248620580705	9.774511870320081e-5	5.895998032034325e-14	15.192023716947132	964.7716259652262
29.0	6.489916318381262	4.3198406277890555	-14.187250536563573	0.27084697580324885	40.36700334032038	0.00010123269284118146	5.572963401478064e-14	16.337349431125777	897.1365572421001
30.0	6.610567501035195	4.4066069239274155	-14.242909621969766	0.2700536860252492	39.723389253262894	0.00010478618415084663	5.2733971935147023e-14	17.476825182676762	838.6439338896283
31.0	6.73268651581016	4.49549528769198	-14.303884349295371	0.26915530219396355	39.107593517827645	0.00010840330475619094	4.995271183235473e-14	18.607198034908528	787.6969652069066
32.0	6.856138052236152	4.586348763430312	-14.36977913344786	0.2681675346908471	38.51791159315681	0.00011208201790662104	4.736761664285125e-14	19.724241315519436	743.0873101095689
33.0	6.980803187485457	4.679026143779587	-14.440235036625007	0.2671044296164957	37.952747745785686	0.00011582049757011286	6.638723150735216e-14	20.82982756640863	703.6464116840702
34.0	7.106576903227868	4.773399930981739	-14.514926303396873	0.2659784931116136	37.4106126856422	0.00011961709571198637	3.2972467643179823e-15	21.92095845710261	668.6219241637402
35.0	7.233366045178871	4.8693546253148865	-14.593557169719295	0.26480081863521643	36.89011940082631	0.00012347031567109087	3.1360065700259426e-15	22.995235866291406	637.3856527641334
36.0	7.361087637108071	4.966785278822116	-14.675858945311534	0.2635812128644907	36.389977932600026	0.0001273787903817522	2.9855061695498067e-15	24.051181323607626	609.4018096614171
37.0	7.489667480070855	5.065596265639755	-14.761587360486262	0.2623283172382453	35.90898959900925	0.00013134126446315305	2.844888310162969e-15	25.089684109791417	584.17767872101
38.0	7.619038982227232	5.165700230254175	-14.85052016340242	0.26104972320259384	35.4460410112832	0.00013535657940708998	2.713373055763202e-15	26.109249272690985	561.3655632156266
39.0	7.749142175908703	5.267017182747798	-14.942454950867631	0.25975207999506644	35.000098111567695	0.00013942366125664518	2.5902500355895976e-15	27.10936010523402	540.6558239001575
40.0	7.879922887656714	5.369473716392357	-15.037207214499505	0.2584411943655223	34.57020037943678	0.000143541510299145	2.47487159274045e-15	28.089996067513567	521.7812557849438
41.0	8.011332033810703	5.473002327646266	-15.134608583820004	0.2571221220452917	34.15545529828174	0.00014770919239436313	2.3666466976470568e-15	29.051275492345965	504.51600402064776
42.0	8.14332501965126	5.5775408223620015	-15.234505248282343	0.25579925106394696	33.755033133656845	0.00015192583163628687	2.26503551980713e-15	29.99313998338932	488.6728575673821
43.0	8.27586122446186	5.683031795067697	-15.3367565410857	0.25447637720492117	33.368162048972195	0.0001561906041089873	2.1695445716566056e-15	30.915168289631158	474.09845179517316
44.0	8.408903558193664	5.789422170484936	-15.441233668742026	0.25315677201897185	32.99412356591576	0.0001605027325439666	2.0797223538375584e-15	31.817363501819706	460.6551835215104
45.0	8.542418078100745	5.8966627983392925	-15.547818571579553	0.25184324388776913	32.63224836516258	0.00016486148172387225	1.9951554427272305e-15	32.70168129039147	448.1981612183312
46.0	8.676373655870217	6.004708094056524	-15.656402901629924	0.25053819266601374	32.28191241530684	0.00016926615450791086	1.915464970059033e-15	33.56621035428329	436.65439942138255
47.0	8.810741687422722	6.113515719106728	-15.766887105589118	0.249243658441881	31.942533413412384	0.00017371608837666916	1.8403034515497438e-15	34.412521338909876	425.9157089582109
48.0	8.945495838970013	6.223046295792683	-15.879179601732412	0.24796136494601503	31.613567518012395	0.00017821065241385738	1.7693519271145995e-15	35.24050120075534	415.9087675741459
49.0	9.080611824034186	6.33326315210434	-15.993196040783626	0.24669275811818608	31.29450635428581	0.00018274924465780889	1.7023173799055218e-15	36.051103660233615	406.5571351500306
50.0	9.216067206927008	6.444132092824014	-16.10885864177239	0.2454390403148557	30.984874271014046	0.00018733128976541614	1.6389304053224908e-15	36.84320654967132	397.8164442158772
51.0	9.351840713865316	6.555620690355007	-16.226095594858077	0.2442012112025113	30.684226237529575	0.00019195622384349492	1.5789432071885145e-15	37.61925923209565	389.60983608620825
52.0	9.487914654859974	6.667700616279783	-16.344840523966916	0.24298004156379632	30.392143504046224	0.00019662355811108406	1.522127178835024e-15	38.37864989642614	381.9007042367643
53.0	9.624269634875231	6.780342439912037	-16.465032002856855	0.24177620295681326	30.108235579822747	0.0002013327462526374	1.468272207352166e-15	39.12196353328229	374.6446266847606
54.0	9.76088958352659	6.893520510786973	-16.5866131189283	0.2405901826325456	29.832134224797674	0.00020608331394950997	1.4171840852722944e-15	39.84994666511741	367.8005781606528
55.0	9.897759069962076	7.007210304356194	-16.709531079720406	0.23942235495817518	29.56349372657144	0.00021087479205383092	1.3686836110261701e-15	40.56430097333694	361.323456127972
56.0	10.034863720133405	7.121388800659846	-16.83373685759315	0.23827298706362074	29.30198887589635	0.00021570672849238311	1.3226052050679664e-15	41.26192897810305	355.21445036850986
57.0	10.172190128876656	7.2360343709284844	-16.959184868588753	0.23714225314662774	29.04731348494014	0.00022057868718402198	-1.8130256305455754e-14	41.94511329092158	349.42886723049145
58.0	10.309725780710517	7.351126674241111	-17.085832681910176	0.2360302470630863	28.799179028112867	0.00022549024705509972	-1.753930238250902e-14	42.61455369158508	343.9396204681028
59.0	10.447458978382297	7.466646563252243	-17.2136407568447	0.23493699340028795	28.557313394442644	0.00023044100114259257	-1.6976646548290823e-14	43.27022920304198	338.7278896611659
60.0	10.585378778300619	7.58257599809469	-17.342572204310606	0.23386245720952106	28.321459741498284	0.000235430555775624	-1.644056360261364e-14	43.91166335326724	333.77996422471716
61.0	10.723474931942437	7.6988979675125995	-17.472592570512596	0.23280655255689836	28.091375441923727	0.0002404585298224802	-1.5929452950904934e-14	44.53435401432075	329.11296789862985
62.0	10.861737832801458	7.81559641672601	-17.60366964046484	0.23176915002826004	27.866831114109118	0.00024552455400281574	-1.544182840944976e-14	45.159619634675245	324.55617522179705
63.0	11.000158468037858	7.932656181150019	-17.735773259385684	0.23075008331474017	27.647609729785664	0.0002506282702508989	-1.4976308925738337e-14	45.763093067042945	320.2762846827048
64.0	11.138728374549059	8.050062925624141	-17.868875170180093	0.229749154984359	27.433505791609377	0.00025576933113077697	-1.453161012578153e-14	46.3578709882674	316.1670954822499
65.0	11.27743959878612	8.167803088418587	-18.002948865420368	0.22876614153968705	27.22432457469517	0.0002609473992925598	-1.4106536609805438e-14	46.94084208360399	312.2405302614045
66.0	11.41628466016984	8.285863829820359	-18.137969452401496	0.22780079784214163	27.01988142648346	0.00026616214697168	-1.3699974924812854e-14	47.51300946649188	308.48042647010107
67.0	11.555256517467948	8.404232984594826	-18.27391353000105	0.22685286098308835	26.82000111994865	0.0002714132555202811	-1.331088715051165e-14	48.07486452823965	304.8751892892344
68.0	11.694348538159804	8.522899018306905	-18.4107590762053	0.22592205366203566	26.624517255540418	0.00027670041497547657	-1.2938305040428274e-14	48.63487481642573	301.3646787089339
69.0	11.83355447014242	8.641850986790107	-18.54848534528186	0.2250080871367022	26.433271707765837	0.00028202332365237124	-1.2581324666867763e-14	49.17627954080937	298.0468136256274
70.0	11.97286841591901	8.761078498864729	-18.687072773685557	0.2241106637901449	26.24611411258436	0.0002873816877688554	-1.2239101522361144e-14	49.70926029725481	294.8511672765886
71.0	12.112284808720313	8.880571681699493	-18.826502893877795	0.22322947936569665	26.062901392271716	0.0002927752210913172	-1.1910846035878056e-14	50.229433630157395	291.79770433050436
72.0	12.25179839057239	9.000321148789004	-18.966758255322137	0.22236422490649563	25.883497314606693	0.0002982036446044826	-1.1595819465459368e-14	50.74317896039686	288.8434213895126
73.0	12.391404192066055	9.120317970257982	-19.107822351995388	0.2215145884360433	25.707772083582228	0.0003036666862016077	-1.1293330133023374e-14	51.248616083525086	285.99471640782707
74.0	12.53109751365861	9.240553645281013	-19.24967955581862	0.220680256411154	25.53560195907329	0.0003091640803929983	-1.1002729970349467e-14	51.7441138440157	283.25605241370755
75.0	12.67087390846757	9.361020076540175	-19.392315055470238	0.21986091497344856	25.366868903103494	0.0003146955680340474	-1.072341134812621e-14	52.23399445606926	280.5995133194017
76.0	12.810729166237845	9.481709546366577	-19.5357148001004	0.21905625102604911	25.201460250650563	0.00032026089606589325	-2.4484094951573572e-15	52.71338425682394	278.0476653081514
77.0	12.950659298614712	9.60261469466502	-19.67986544750893	0.21826595315370653	25.039268402977775	0.0003258598172743388	-2.3878875652989774e-15	53.18845512967273	275.5641875171633
78.0	13.09066052537392	9.723728498233761	-19.824754316394678	0.21748971240862133	24.880190541751805	0.00033149209005951395	-2.3296310267320015e-15	53.654728014799616	273.1694664272375
79.0	13.230729261767694	9.845044251626314	-19.970369342317483	0.21672722297472058	24.724128362369306	0.00033715747822098553	-2.273529164585586e-15	54.112326288275	270.85942202926856
80.0	13.370862106686054	9.966555549206685	-20.116699037056314	0.21597818272860395	24.57098782495249	0.00034285575075281884	-2.2194778271912295e-15	54.563427301468636	268.6201022916106
81.0	13.511055831669953	10.088256268424987	-20.263732451066765	0.21524229370798653	24.42067892173401	0.00034858668164960353	-2.1673789747900075e-15	55.00887305437839	266.4448953282958
82.0	13.651307370744927	10.210140554248344	-20.41145913877789	0.2145192624991282	24.273115459525904	0.00035435004972461193	-2.1171402631440882e-15	55.446025272984606	264.34416806145214
83.0	13.791613810839703	10.332202804492887	-20.55986912648723	0.21380880055502396	24.12821485621411	0.0003601456384339548	-2.068674659108764e-15	55.87839628462192	262.2987486692601
84.0	13.931972382990057	10.454437656239227	-20.70895288263701	0.21311062445032447	23.985897950189553	0.000365973235713404	-2.0219000854242403e-15	56.30271332355711	260.3219730969685
85.0	14.072380454058276	10.57683997303852	-20.858701290275206	0.21242445608335989	23.846088821802137	0.00037183263382118065	-1.976739092315222e-15	56.72157016401487	258.39964198311117
86.0	14.212835518993021	10.699404832913377	-21.009105621520938	0.2117500228314483	23.70871462593108	0.00037772362918849016	-1.933118553657975e-15	57.13566369188763	256.52687789084706
87.0	14.353335193659113	10.822127517177998	-21.160157513871177	0.21108705766440372	23.57370543492127	0.00038364602227842847	-1.890969385670978e-15	57.54350912383895	254.70871773840733
88.0	14.493877208090128	10.945003499899434	-21.31184894820111	0.21043529922333587	23.440994091086445	0.0003895996174509505	-1.850226286307253e-15	57.946580228246084	252.9369872280553
89.0	14.634459400190691	11.068028438024957	-21.464172228321164	0.20979449186832563	23.310516068160062	0.00039558422283419347	-1.810827493649901e-15	58.343331275619626	251.21694463864333
90.0	14.77507970983703	11.191198162103104	-21.617119961968633	0.2091643856996394	23.182209341031154	0.0004015996502018852	-1.7727145617840284e-15	58.735273044114024	249.54056844331217
91.0	14.915736173382099	11.314508667598284	-21.770685043120167	0.2085447365555941	23.056014263217545	0.00040764571485700865	-1.7358321527386307e-15	59.12191817476386	247.90862467919078
92.0	15.056426918433758	11.437956106646647	-21.924860635522418	0.20793530599160004	22.931873451519298	0.0004137222355190358	-1.7001278432376055e-15	59.50327161103489	246.3197909337014
93.0	15.197150158999655	11.561536780347064	-22.079640157346475	0.2073358612417131	22.809731677398222	0.00041982903421700307	-1.665551945073395e-15	59.881059970757434	244.76576450481906
94.0	15.337904190993855	11.685247131565374	-22.235017266880433	0.20674617516536392	22.689535764591486	0.00042596593618939634	-1.6320573380396073e-15	60.25089520019676	243.26333035220193
95.0	15.478687387904776	11.809083738041776	-22.39098584918026	0.20616602618302307	22.571234492580004	0.00043213276978499584	-1.5995993144657175e-15	60.61698539836124	241.79416588898212
96.0	15.619498196779597	11.933043305950308	-22.547540003608276	0.2055951982011049	22.454778505501544	0.000438329366369617	-8.220349844954765e-15	60.97982661879942	240.35544598585034
97.0	15.760335134468594	12.057122663846345	-22.70467403219025	0.20503348052816212	22.340120226164327	0.0004445555602372559	-8.060412619001699e-15	61.33918297806337	238.94732064401742
98.0	15.901196784009684	12.181318756868809	-22.8623824287338	0.20448066778490034	22.227213774819536	0.00045081118852274875	-7.905274742949898e-15	61.694893701344036	237.56963573116687
99.0	16.04208179139213	12.305628641440357	-23.020659868648732	0.20393655980688563	22.116014892396223	0.000457096091122666	-1.4793155032792948e-15	62.04649806188303	236.22337893241203
100.0	16.182988862266253	12.430049480010211	-23.179501199421004	0.20340096154496146	22.006480867915865	0.0004634101106124642	-7.608642906716638e-15	62.39422501706078	234.90689112804375
101.0	16.323920496247915	12.554582267710169	-23.33890143169065	0.20287365525773463	21.898569752922835	0.00046975321438259664	-7.466793144731861e-15	62.7367196111298	233.62447883713017
102.0	16.46486429824028	12.679213170842711	-23.49885573089223	0.2023545389158518	21.79224388089867	0.00047612488352124035	-7.329036209232324e-15	63.07420795180284	232.37443479751894
103.0	16.605830347455736	12.803950836343056	-23.659359409415934	0.2018433490711786	21.68746263683932	0.0004825253348309185	-7.195210895356652e-15	63.40962169614083	231.145258890472
104.0	16.746813823264684	12.928789073904747	-23.82040791925452	0.20133993776835582	21.584189567760703	0.0004889542986749924	-7.065169503870245e-15	63.74178261558983	229.94075191610074
105.0	16.88781368867366	13.053725508996402	-23.981996845100376	0.2008441339229733	21.482388742957802	0.0004954116299563708	-6.938769783986304e-15	64.0704241908074	228.7612983402765
106.0	17.02882895095383	13.178757847828626	-24.14412189786222	0.20035577091252565	21.3820254184201	0.0005018971858473443	-6.815876078446996e-15	64.39964072382215	227.59185079862777
107.0	17.169858659483108	13.303883873813827	-24.306778908572625	0.19987468646601145	21.283065987041144	0.0005084108257281773	-6.6963589634390486e-15	64.7148551402037	226.48329183998894
108.0	17.31090190384126	13.429101444352616	-24.46996382265887	0.19940072255293068	21.18547793136257	0.000514952411131571	-6.580094910925781e-15	65.04437846309676	225.33589788112107
109.0	17.45195781180733	13.554408487568866	-24.63367269455332	0.19893372527506284	21.089229778648537	0.0005215218056841633	-6.466965971982956e-15	65.35849975345374	224.25290480029494
