Ω(THz2π)|T(K)|Reχ(ω₀/m₀)	0.48	50.0	100.0	150.0	200.0	250.0	300.0	350.0	400.0
0.0	0.0	0.0	0.0	0.0	0.0	0.0	0.0	0.0	0.0
0.10000000000000023	0.11615204036201171	-0.005391209802209862	-0.13794554623706226	-0.15196722069773672	-0.14554078223920222	-0.13596412503205504	-0.1267379104911727	-0.11854939275237673	-0.11142264154887775
0.20000000000000023	0.23472304291829735	-0.01297579169786716	-0.27647856084611233	-0.30415824422028864	-0.2911900755783895	-0.27198932698542555	-0.25351373627520957	-0.2371241850890417	-0.22286311895194713
0.3000000000000002	0.35882066217199027	-0.02497378679345222	-0.41618810082759167	-0.45679709046098504	-0.437056300197601	-0.40813679230310024	-0.3803657996654121	-0.3557498358524539	-0.33433953882154405
0.40000000000000024	0.49382985671188817	-0.0436587838125965	-0.557666270858733	-0.6101084144671153	-0.5832483312506245	-0.5444675455617316	-0.5073319373317927	-0.47445193742268266	-0.4458697794607061
0.5000000000000002	0.6557329912914275	-0.07138553939667862	-0.7015099265271763	-0.7643174537940313	-0.7298748428639843	-0.6810430465838445	-0.6344502565250065	-0.5932558739292262	-0.557471777637965
0.6000000000000002	0.8569694700921958	-0.11035381730799135	-0.8482560380572445	-0.9196209066893001	-0.8770280174386273	-0.817913352726539	-0.7617510421312362	-0.7121810135254156	-0.6691587583136646
0.7000000000000003	0.9275133483334915	-0.15776195694583	-0.9971719937404581	-1.0756453127260572	-1.024471474041373	-0.9549120285651636	-0.8891094348670608	-0.8311294489995928	-0.7808513313326239
0.8000000000000003	1.0480853105904195	-0.21411538369594701	-1.148340591253772	-1.2323814109113087	-1.172178212570798	-1.0920106450111424	-1.0164992228185716	-0.9500778782783439	-0.8925290129346644
0.9000000000000001	1.224987819033252	-0.28163187822968666	-1.3022504721571573	-1.389999793896327	-1.3202249302182925	-1.2292490322653098	-1.1439431981901815	-1.069040351023384	-1.0042007296510624
1.0000000000000002	1.4482495799256736	-0.3610156601771144	-1.458986573257691	-1.5484881548622342	-1.468582104750006	-1.366597042205504	-1.2714138150399954	-1.1879923465348539	-1.1158450933954793
1.1	1.4199396469907428	-0.44676171879092996	-1.6170703779641156	-1.7071334968757943	-1.6168172687883295	-1.5037589912984977	-1.3986936452565144	-1.3067660044894787	-1.2273274782346415
1.2000000000000002	1.3998595560258604	-0.5351072399112892	-1.7754742393777745	-1.8654259426863111	-1.7646150914110925	-1.6405165659236445	-1.5256206814236015	-1.4252351939491479	-1.3385465196977295
1.3000000000000003	1.4116164930207797	-0.6287977227088483	-1.9347909386859197	-2.023581100036142	-1.9120780485184075	-1.776926708612221	-1.6522300562955823	-1.5434233431728321	-1.4495184787816708
1.4000000000000004	1.4558732631933347	-0.7307688214468868	-2.0956382851478548	-2.181823981431454	-2.059313924633505	-1.9130498951377213	-1.778559285775953	-1.66135532936715	-1.560260982787291
1.5000000000000002	1.5447377933311754	-0.8440950275006915	-2.2586393065973724	-2.340379932633601	-2.206430372988624	-2.0489465776203954	-1.9046460886609708	-1.7790565067425603	-1.6707917503123089
1.6000000000000003	1.679896150748997	-0.971709243792267	-2.42434500183303	-2.4994394723277473	-2.3535147425376737	-2.184663579735465	-2.0305182443386838	-1.8965445261995562	-1.78112284955275
1.7000000000000004	1.7372562692089495	-1.1127424662441012	-2.592326530678974	-2.658752626842489	-2.500400584171477	-2.320080686183907	-2.156084027545745	-2.0137466431733566	-1.8911947153488216
1.8	1.8364674910627259	-1.2693274059011102	-2.7628830250892418	-2.818394419337006	-2.647108533084286	-2.455201101895777	-2.281340059561517	-2.130656980805179	-2.0010007115920954
1.9000000000000001	1.99638647636626	-1.4451538869237348	-2.9366549575905996	-2.978589700565239	-2.7937453466101343	-2.5900843082041973	-2.4063234063859107	-2.2473004212156926	-2.110558358766512
2.0	2.2901365973746226	-1.6441862701147196	-3.114292874880921	-3.1395642464412976	-2.9404176728951374	-2.724790075708538	-2.531071160495748	-2.363701656512782	-2.219885053144402
2.1	2.7301473723032834	-1.8689461364061155	-3.2960204737164895	-3.3013486708745927	-3.0871193831455623	-2.8593036668623335	-2.6555671463513266	-2.4798452581241026	-2.328966639683006
2.1999999999999997	2.7928330304046716	-2.1051990166879855	-3.4778785488376185	-3.4621034637545702	-3.232768535739521	-2.992901830703329	-2.7792881293604506	-2.5953317580766346	-2.4374862276750515
2.3	2.871185203856407	-2.3468738434724283	-3.6580312379553	-3.6209492390846614	-3.376838288313083	-3.125227859755749	-2.901973455293128	-2.709960737467722	-2.5452837951920735
2.4	2.7711352435415173	-2.5818799723378607	-3.833207366512933	-3.7763723758036205	-3.5184385242790985	-3.255686374004152	-3.023192131574013	-2.823403022597372	-2.652098088335752
2.5	2.6109086141884323	-2.807568710531777	-4.0025732886974845	-3.9279599233227445	-3.6573152362231056	-3.3841018580482376	-3.1428138381378035	-2.93555708074993	-2.7578472997662042
2.6	2.302488382236896	-3.014902779204938	-4.163778401836129	-4.074628702750069	-3.792830594536416	-3.5100466665735213	-3.2605281873205216	-3.0461852652276886	-2.8623424139953624
2.7	2.0281406859425584	-3.2046015495447784	-4.31698128528181	-4.216427520882764	-3.925000512423403	-3.6335245350847747	-3.3763338790764377	-3.1552841867645864	-2.9655791243625695
2.8000000000000003	1.7806053273180045	-3.378255758791706	-4.462573113994416	-4.353512510676369	-4.053903748377894	-3.7545809299704103	-3.49025967046593	-3.2628732259961684	-3.067571081133626
2.9000000000000004	1.5391901898199845	-3.5366002450044536	-4.6007470453935495	-4.485954417746377	-4.179570778757519	-3.8732299888952877	-3.6023120811096545	-3.368955064999785	-3.1683188595751735
3.0	1.319534401193001	-3.680889302535167	-4.731841999767656	-4.613892442241691	-4.302072471867228	-3.9895127875369814	-3.712517019846319	-3.473546959846168	-3.267834702306839
3.1	1.1197494982724054	-3.812449974463197	-4.856223386794066	-4.737480282639166	-4.421488952166761	-4.103476730971946	-3.8209051292327176	-3.57667010992917	-3.366133898287165
3.2	0.9383563076924484	-3.9325254991332494	-4.974241903980825	-4.85686703705044	-4.537898401773373	-4.215168416511766	-3.9275066502204155	-3.678345300573679	-3.463231337362452
3.3000000000000003	0.774420408185713	-4.0422862451060375	-5.086234237566009	-4.972198006651707	-4.65137759791108	-4.324633744025202	-4.032351342118593	-3.7785930513916073	-3.5591418973656883
3.4000000000000004	0.6281657505574754	-4.1428399728084235	-5.192523838966563	-5.0836139834894665	-4.76200142786548	-4.4319176312986155	-4.135468529751873	-3.8774337862507915	-3.6538803636185535
3.5000000000000004	0.5072796749174511	-4.235241817766589	-5.2934217842202225	-5.191252077062087	-4.869843165919366	-4.537064229210527	-4.236887036822538	-3.974887378878856	-3.7474611570250547
3.5999999999999996	0.38432790535399386	-4.320097755967021	-5.389127021558461	-5.295200737452472	-4.974948931941042	-4.640100139589577	-4.336623275360419	-4.070964472187077	-3.839891416651345
3.6999999999999997	0.25748316401721966	-4.397094263346534	-5.479619835918003	-5.395453069917122	-5.077310658835748	-4.741016499839925	-4.434668456312394	-4.1656566791317875	-3.9311632852479734
3.8	0.14350447835352342	-4.466959892535668	-5.565147865295471	-5.492123838354308	-5.176991082629401	-4.839851358018021	-4.531047455562825	-4.258981265395561	-4.0212893651309845
3.9	0.044726628386287784	-4.53046540684374	-5.645968483457454	-5.585333668991759	-5.274056690654729	-4.9366458356806	-4.6257875899021705	-4.350957293033469	-4.110283542033521
4.0	-0.02932926394032464	-4.588247269194219	-5.722303912613383	-5.675188393231756	-5.368566326663498	-5.031435744417676	-4.718912341788326	-4.441601152991794	-4.198157517285536
4.1000000000000005	-0.1291474167544011	-4.6402324463615425	-5.794200088870263	-5.761716354870227	-5.460534617620571	-5.124228309892803	-4.8104249192808	-4.530913776016085	-4.284911092590776
4.2	-0.2300306797997615	-4.685705201151254	-5.861557914046488	-5.844883696191854	-5.549941200711935	-5.215008090006374	-4.900312539491937	-4.618884109472626	-4.370534619923846
4.3	-0.3233912876228824	-4.725117046885044	-5.924577015791169	-5.924792010053465	-5.636844461446321	-5.30381158008212	-4.988599595135468	-4.705529381898544	-4.455040649628294
4.3999999999999995	-0.40977990911918	-4.758908690734896	-5.983454316459204	-6.001542794678171	-5.72130290161751	-5.390675840145299	-5.075311073666273	-4.790867390323129	-4.538442304441407
4.5	-0.4896965803483921	-4.787486294942488	-6.038377636381459	-6.075234245273626	-5.803374068833178	-5.475637283425652	-5.160471597358748	-4.874915380040329	-4.620752367431322
4.6	-0.5635962069251907	-4.8112243500134655	-6.089526170287689	-6.145961551037091	-5.88311377830341	-5.558731526372896	-5.244105274498868	-4.957690762792434	-4.701983691701511
4.7	-0.6318933156873605	-4.830468377720721	-6.137070916295517	-6.213816942442906	-5.960576660203033	-5.6399935797645435	-5.326236075328226	-5.039210429060511	-4.782148724283727
4.8	-0.6949662230802881	-4.845537304986007	-6.181174945517228	-6.2788897656092315	-6.035816163008361	-5.719457754748328	-5.406887052677553	-5.119490596723061	-4.86125980968132
4.9	-0.7531606732786393	-4.856725698667011	-6.221993966672049	-6.341266519817825	-6.1088842893404935	-5.797157807483313	-5.486081955703349	-5.198549345352515	-4.939329561562071
5.0	-0.8067930338140432	-4.864305833764347	-6.259676414056367	-6.401031122217639	-6.179831997781432	-5.873126601088175	-5.563842836931763	-5.276401320239131	-5.016369769200855
5.1	-0.8561530930528424	-4.868529494725731	-6.2943640245635	-6.4582647433282006	-6.248708943831368	-5.947396975889251	-5.640192408030583	-5.353063512198264	-5.092392748597921
5.2	-0.9015065215320486	-4.869629764757916	-6.326191994195701	-6.513046155244034	-6.315563750472954	-6.020000470290063	-5.715152640685766	-5.428551577694682	-5.167410266598672
5.3	-0.9430970276902649	-4.867822496931706	-6.355289375449028	-6.565451590573592	-6.380443759318161	-6.090968434143769	-5.788745129153409	-5.50288116278067	-5.241433868302499
5.4	-0.981148258934857	-4.863307760805097	-6.381779302877668	-6.61555493153438	-6.443395163857164	-6.160331396796187	-5.860991132264203	-5.576067752047359	-5.314475208735113
5.5	-1.0158654520249768	-4.856271196019432	-6.40577927968434	-6.663427744835098	-6.504463346461444	-6.228119577129588	-5.931911819882044	-5.6481265869784	-5.386545818557498
5.6000000000000005	-1.0474368659875262	-4.846885166490698	-6.427401467054912	-6.70913940861225	-6.5636923613175675	-6.294362479818449	-6.001527803430354	-5.719072692234082	-5.457656926915275
5.7	-1.0760350185111491	-4.835309902834392	-6.446752957695626	-6.752757141992468	-6.621125302062321	-6.359089047876367	-6.069859406630851	-5.788920928537342	-5.527819713357676
5.800000000000001	-1.10181770704415	-4.82169448556479	-6.463935871311418	-6.794345966998918	-6.676804289999689	-6.422327596770135	-6.136926600155136	-5.857685938697413	-5.597045296583888
5.8999999999999995	-1.124928839410844	-4.806177796352606	-6.479047741408858	-6.83396905924689	-6.730770468959677	-6.484106350951909	-6.202749360573161	-5.925382327546689	-5.665344701224697
6.0	-1.1454990164549894	-4.788889332076912	-6.492181701651671	-6.871687496299436	-6.783063989588611	-6.544452448636374	-6.267346876862479	-5.9920242036167135	-5.7327284496195166
6.1	-1.1636458246317363	-4.76995003323402	-6.50342657040614	-6.9075604942090925	-6.833724013198461	-6.603392721473437	-6.330738349909527	-6.057625674758071	-5.7992074808378025
6.2	-1.1794737094704983	-4.749472969787066	-6.512867262279968	-6.941645467047774	-6.882788925461066	-6.660953599381013	-6.392942486715565	-6.122200601303889	-5.864792240472834
6.3	-1.193073093182541	-4.72756400905855	-6.5205847325127815	-6.973998018988412	-6.930296086878423	-6.717160922726021	-6.453977932979193	-6.185762730905225	-5.929493185595025
6.4	-1.2045178544092716	-4.704322408459749	-6.526656314616297	-7.004671999869855	-6.976282055833041	-6.772040189860103	-6.513862879312687	-6.248325616140741	-5.993320632335901
6.5	-1.2138575329983363	-4.6798414259046135	-6.531155853982003	-7.0337195912064905	-7.020782406473874	-6.825616154017434	-6.572615317805002	-6.309902540901698	-6.0562847499505805
6.6000000000000005	-1.221068123851461	-4.654208794501027	-6.53415388245352	-7.0611914440205545	-7.063832149112358	-6.877913365020294	-6.630252963650332	-6.3705066709530485	-6.118395523387012
6.7	-1.2262227082748711	-4.627507204789451	-6.535717683119154	-7.087136522879463	-7.105465188570776	-6.92895575363111	-6.686793061243693	-6.430151004373497	-6.17966301885575
6.800000000000001	-1.229551594738717	-4.599814690696778	-6.535911582859645	-7.11160229984554	-7.1457148297289965	-6.978766857413327	-6.7422529512849865	-6.4888484739636425	-6.2400970591834914
6.9	-1.231001567347048	-4.571205008566089	-6.534796966383311	-7.13463486313063	-7.184613458228171	-7.027369826200205	-6.796649163512482	-6.54661157186532	-6.299707250012266
7.000000000000001	-1.2304300398995383	-4.541747982735637	-6.532432509848726	-7.156278764977153	-7.222192857713507	-7.0747872723103455	-6.849998580163975	-6.6034528444297	-6.3585033680421645
7.1	-1.2279126521211754	-4.51150978239448	-6.528874195526255	-7.176577223754813	-7.258483951982469	-7.121041524368253	-6.902317456277388	-6.659384502966736	-6.416494730931881
7.199999999999999	-1.224157415612913	-4.480553131373039	-6.524175574109462	-7.195572121175081	-7.293516922627117	-7.166154309791461	-6.953621894512439	-6.714418800905899	-6.473690866593193
7.3	-1.2192351283112157	-4.448937465668668	-6.5183877301446795	-7.213304024451925	-7.327321363527844	-7.210147093510465	-7.00392771056311	-6.768567671107046	-6.530100938157667
7.3999999999999995	-1.2131066084368312	-4.416719048719627	-6.511559542642091	-7.22981228912978	-7.3599261453185445	-7.2530408814719065	-7.0532504933798945	-6.821842987857372	-6.585734291590372
7.5	-1.2056960660786296	-4.383950992675715	-6.503737620229078	-7.245134956097979	-7.391359336466115	-7.294856425330702	-7.10160570783481	-6.874256362963289	-6.640599746236125
7.6	-1.1967897128744722	-4.35068325416365	-6.494966592673851	-7.2593090220003065	-7.421648565369394	-7.335613784578573	-7.149008267365797	-6.925819380066573	-6.694706475404481
7.7	-1.186432466773804	-4.316962507242861	-6.485289062883692	-7.272370215049421	-7.450820575732228	-7.375332938914862	-7.195473212242357	-6.976543370424429	-6.748063227467552
7.8	-1.1748703510826535	-4.282832039894801	-6.47474580217057	-7.284353240230467	-7.478901729908292	-7.414033355302109	-7.241015083374084	-7.026439496705275	-6.800678837076622
7.9	-1.1619066248053205	-4.248331463495218	-6.46337566430927	-7.295291712893108	-7.505917575829935	-7.45173413050624	-7.2856483311535545	-7.075518847486712	-6.852561824878416
8.0	-1.1471773839145394	-4.213496674701098	-6.451215946785143	-7.305218192622652	-7.531893184020164	-7.488454116951988	-7.329387196082083	-7.123792355174914	-6.903720780160178
8.1	-1.12965439292883	-4.1783601873538485	-6.438302215772054	-7.314164211520294	-7.556852973133545	-7.524211659955663	-7.3722455495312476	-7.1712707400230595	-6.954164241055713
8.200000000000001	-1.1095246364549083	-4.142951431545961	-6.424668484459575	-7.3221604589938	-7.5808209291660225	-7.559024925798023	-7.414237262351443	-7.2179647085847645	-7.0039004940240295
8.3	-1.0879262227320792	-4.107297427471154	-6.410347321084312	-7.329236451774577	-7.60382020557692	-7.592911579255723	-7.455375842238209	-7.263884774110868	-7.052937775189912
8.4	-1.0658609546121505	-4.071423860083369	-6.395369884219342	-7.335420998338742	-7.625873681239038	-7.625889048713124	-7.495674525174061	-7.309041119676299	-7.101284293673447
8.5	-1.043661336959785	-4.035355945257252	-6.379765932677262	-7.340741938966543	-7.647003616187617	-7.657974448546636	-7.5351465294352575	-7.3534440215400485	-7.148947970055017
8.6	-1.0225150054123326	-3.9991185571275625	-6.363564002796202	-7.345226199522575	-7.667231727790836	-7.689184557940878	-7.5738047915190805	-7.397103634713757	-7.195936984104513
8.7	-1.003000596295499	-3.962736161444999	-6.34679137474651	-7.348900000672698	-7.686579188523412	-7.719535780765214	-7.6116619635913905	-7.440029814547244	-7.242259077562196
8.799999999999999	-0.9849542521246066	-3.9262327691574126	-6.32947419495004	-7.351788661785128	-7.705066785844243	-7.749044301282175	-7.6487306536652255	-7.482232387054042	-7.287922050303534
8.9	-0.9683353923146457	-3.8896321337139574	-6.311637481162482	-7.353916748176793	-7.722714759608417	-7.777725933581891	-7.685023113119378	-7.523720953138358	-7.332933596120757
9.0	-0.9531254013003521	-3.8529579264021603	-6.293305192718842	-7.3553080690170445	-7.739542831596084	-7.80559636684341	-7.720551521273649	-7.56450524655647	-7.377301431089276
9.1	-0.9392258320688041	-3.816233640646098	-6.27450032921446	-7.355985740795197	-7.755570391013188	-7.8326706515798765	-7.7553277919204735	-7.604594472391214	-7.421032884640765
9.2	-0.9265411860549977	-3.779482421223527	-6.255244904837681	-7.355972110971503	-7.770816264484393	-7.8589639128026905	-7.789363717878143	-7.643998099228092	-7.464135586213239
9.3	-0.9149771531347568	-3.7427267659388184	-6.235560014842034	-7.355288849259972	-7.785298895380067	-7.8844907836320015	-7.8226708652804575	-7.6827251687340015	-7.506616743229338
9.4	-0.9044368174719963	-3.7059885338695047	-6.215465938621101	-7.353956983619519	-7.799036282230168	-7.909265787064638	-7.855260700129599	-7.720784821553561	-7.548483617863992
9.5	-0.8948072518472348	-3.6692898655625226	-6.194982108700213	-7.351996905034207	-7.812045939848687	-7.933302951986577	-7.887144307598013	-7.758185908970789	-7.589743392255099
9.6	-0.8859075573439449	-3.632653849269452	-6.174127184960507	-7.349428334312011	-7.8243451469631875	-7.956616239575213	-7.918332914768843	-7.7949373008267075	-7.630403247258392
9.700000000000001	-0.8778635289805693	-3.5961047353151647	-6.1529190960914795	-7.3462704607472045	-7.835950632763717	-7.979219337641382	-7.948837327718024	-7.831047728746051	-7.670470174372479
9.8	-0.870676281120312	-3.559667929771579	-6.131375061850847	-7.342541779349135	-7.846878722442919	-8.001125437380507	-7.978668113350633	-7.866525749419594	-7.709951030959966
9.9	-0.8642544034099447	-3.5233705990399242	-6.1095116519341985	-7.338260340978053	-7.857145472765035	-8.022347917997156	-8.0078360381603	-7.901379728811139	-7.7488526338141535
10.0	-0.8584823141791397	-3.487242240531356	-6.087344823381092	-7.333443538377218	-7.866766502034295	-8.042899455731613	-8.036351308203473	-7.935618042294081	-7.7871817880984935
10.100000000000001	-0.8532067079491547	-3.4513146880601995	-6.0648899149479885	-7.328108314686783	-7.875757079223039	-8.062792855397486	-8.064224305495376	-7.969249059771949	-7.824945348268664
10.2	-0.8486727032192233	-3.4156221504934434	-6.042161692226603	-7.322271011675267	-7.884132090408174	-8.082040405205646	-8.091464923148877	-8.002280771969593	-7.862149627747927
10.299999999999999	-0.8448858444926532	-3.380201086259756	-6.019174438449931	-7.315947584432527	-7.891906113383741	-8.100654388060402	-8.118083214934307	-8.034721307879911	-7.898801355828342
10.4	-0.8417923413344811	-3.3450900866798214	-5.9959418933422866	-7.309153376810269	-7.8990933567173585	-8.11864666001275	-8.144088833735738	-8.06657855293696	-7.934906913745149
10.5	-0.8393412275156166	-3.3103296758375835	-5.972477328779512	-7.3019034164729835	-7.905707778433221	-8.136029001366152	-8.169491386424756	-8.097860185413788	-7.970472810726252
10.6	-0.837484202574301	-3.275961973002977	-5.948793589968933	-7.294212053324886	-7.911762832496054	-8.15281285436039	-8.194300316090036	-8.128574047382182	-8.005505240530756
10.7	-0.836175484784268	-3.2420303103153363	-5.924903074438585	-7.286093462169938	-7.917271972553409	-8.169009802678803	-8.218525154987484	-8.15872784719867	-8.040010545677811
10.8	-0.8353716696488417	-3.2085786573045403	-5.900817821105221	-7.2775612124667575	-7.922247972112415	-8.184630595134962	-8.242174726299437	-8.188328873290766	-8.07399467942012
