Ω(THz2π)|T(K)|Reχ(ω₀/m₀)	0.48	50.0	100.0	150.0	200.0	250.0	300.0	350.0	400.0
0.0	0.0	0.0	0.0	0.0	0.0	0.0	0.0	0.0	0.0
0.0225000000000005	0.026052096143908278	-0.0011351171138138357	-0.031016842542980493	-0.03418465123306875	-0.03274280458757611	-0.03058974928710991	-0.028514643083058958	-0.0266727307213038	-0.02506946684092483
0.0450000000000005	0.05213022364001199	-0.0022951556291123804	-0.06204038592037587	-0.0683718521988591	-0.06548682034633245	-0.0611801809136023	-0.057029743179040124	-0.05334568353097343	-0.050139072951930874
0.0675000000000005	0.07826071600267354	-0.0035050226270752424	-0.09307728907826185	-0.10256415853041767	-0.09823337873646282	-0.09177203488591909	-0.08554574708921955	-0.08001930935775096	-0.07520917699327395
0.0900000000000005	0.10447052328115403	-0.004789680725280413	-0.1241342467061215	-0.13676409857153962	-0.1309835669432297	-0.1223659084681622	-0.1140629736208166	-0.10669369254731792	-0.10027980438692752
0.1125000000000005	0.13078755110191087	-0.006174170395287573	-0.1552179973525823	-0.17097425886676218	-0.16373877249746704	-0.15296264962153114	-0.14258200413530994	-0.13336931495433227	-0.1253512814177151
0.1350000000000005	0.15724103947358614	-0.0076834992479931155	-0.18633519629894352	-0.20519711931615622	-0.19650015525260203	-0.18356283960053285	-0.17110319189457143	-0.1600463476868309	-0.15042379642754242
0.1575000000000005	0.1838620001225396	-0.009342849307410264	-0.21749251734575925	-0.23943534974344535	-0.22926887798329734	-0.21416718089996606	-0.19962686254307924	-0.18672516395866173	-0.17549756137223177
0.1800000000000005	0.21068373668735182	-0.011177451217385483	-0.2486967168650016	-0.27369135904747866	-0.26204630508814875	-0.24477646437827305	-0.22815369889900142	-0.21340597018562665	-0.2005727606713982
0.20250000000000049	0.23774247940566717	-0.013212612421043497	-0.27995449167583586	-0.30796779836732724	-0.29483361762080595	-0.27539125119976876	-0.2566839977871202	-0.24008905251473386	-0.22564952088400467
0.2250000000000005	0.26507818130181454	-0.01547384958624333	-0.3112725714520188	-0.3422672101721622	-0.3276320354938072	-0.3060123525181652	-0.28521812764729393	-0.2667748304752758	-0.2507281992260322
0.2475000000000005	0.29273554012869113	-0.017986742178090917	-0.3426576714691481	-0.3765921274948747	-0.36044282256604354	-0.3366403246579401	-0.31375661382184256	-0.2934634091234626	-0.27580880020808707
0.2700000000000005	0.3207653434469969	-0.02077702090526999	-0.3741165671299954	-0.41094507339720787	-0.3932671826176168	-0.3672761009582689	-0.3422998511230281	-0.3201553490188715	-0.30089189144519174
0.2925000000000005	0.34922628678456413	-0.02387065880770539	-0.4056559133452045	-0.4453286461155302	-0.42610634945499226	-0.3979201344091024	-0.37084836522795656	-0.34685063108571035	-0.32597719834944716
0.3150000000000005	0.37818749652409717	-0.02729374468737536	-0.43728251977234434	-0.4797454255363868	-0.45896171082547754	-0.42857319089375384	-0.3994025368590735	-0.37354966964915204	-0.35106521810430286
0.33750000000000047	0.4077321468249313	-0.03107261013944919	-0.4690031806998331	-0.5141979698232081	-0.4918342895807758	-0.45923600149064414	-0.4279626489600095	-0.40025281089959663	-0.37615611638708685
0.3600000000000005	0.43796282982619217	-0.035233779565754506	-0.5008246944680546	-0.5486887903508162	-0.5247254461680516	-0.4899093592715149	-0.4565292845414885	-0.4269601646874701	-0.4012499749745985
0.3825000000000005	0.46900987832529756	-0.03980403215568884	-0.53275376740231	-0.5832205112134825	-0.5576364208533057	-0.5205938000275435	-0.4851029340104938	-0.45367247812461875	-0.4263473411113073
0.40500000000000047	0.5010449646501188	-0.04481038832175638	-0.5647972840831451	-0.6177956918680998	-0.5905684315040481	-0.5512900319406375	-0.5136839659811766	-0.4803895945188952	-0.4514480879345745
0.4275000000000005	0.5343048887091115	-0.050280118084983325	-0.5969620371171946	-0.6524168576413589	-0.6235226723831236	-0.581998887427111	-0.5422726892533836	-0.5071118560206808	-0.4765524805168392
0.4500000000000005	0.5691372086354214	-0.056240834796075584	-0.6292548895024324	-0.6870866047285107	-0.6565004552788304	-0.6127209023363396	-0.5708696767718827	-0.5338395618257985	-0.5016606866108202
0.47250000000000053	0.6060995062360703	-0.06272036006232956	-0.6616826676493404	-0.7218075251739947	-0.6895029224832017	-0.6434568925517751	-0.5994753258584891	-0.5605731627407415	-0.5267730984813738
0.4950000000000005	0.6462110475542386	-0.06974693192111187	-0.6942522729509173	-0.7565821960365369	-0.7225315174830688	-0.674207564506297	-0.6280901497523075	-0.5873128840373898	-0.5518897506011816
0.5175000000000004	0.6916703363348472	-0.07734904392953916	-0.7269706057449016	-0.791413210203139	-0.7555872687230132	-0.7049734822906919	-0.6567144708305818	-0.6140589171264124	-0.5770108267935845
0.5400000000000005	0.7476380197131575	-0.08555558568564238	-0.7598445557085649	-0.8263030775701259	-0.7886715908445638	-0.73575556484923	-0.6853488012030264	-0.6408116726621468	-0.6021367434475898
0.5625000000000004	0.8195302379723765	-0.09439580503728959	-0.7928810540534269	-0.8612544813494433	-0.8217856140413061	-0.766554312307552	-0.7139935148135823	-0.6675713219796537	-0.6272674510088566
0.5850000000000004	0.8498202845389591	-0.1038513879857633	-0.8260751291428977	-0.8962645870169086	-0.8549274857556353	-0.7973684302623014	-0.7426477149522905	-0.6943371920995437	-0.6524024766508283
0.6075000000000005	0.8608841302691803	-0.11365786485094811	-0.8593601983269152	-0.9313031120018466	-0.8880796049911546	-0.8281861214499798	-0.7713026985539027	-0.7211027112602787	-0.6775366090911806
0.6300000000000004	0.8739640880221297	-0.12379439340631161	-0.8927306937976696	-0.9663670072168897	-0.9212399054113832	-0.8590060985033441	-0.7999575427904893	-0.7478671103518375	-0.702669205396085
0.6525000000000005	0.8890301810459507	-0.13429028591609793	-0.9261935852796069	-1.001458912753302	-0.9544097084749406	-0.8898289604842661	-0.8286125830619387	-0.7746304514210872	-0.7278002865905822
0.6750000000000004	0.9060995000452192	-0.1451751335595583	-0.9597557330460642	-1.0365813803898458	-0.9875901717393779	-0.9206553467453036	-0.8572684179513892	-0.801393318134645	-0.7529302790162399
0.6975000000000005	0.9252506217509906	-0.15647883975669896	-0.993424164560172	-1.071736977279813	-1.0207826376396192	-0.9514860649297664	-0.8859252880413959	-0.828155817573752	-0.7780592788422548
0.7200000000000004	0.9466596284001887	-0.1682315340008076	-1.027205843983933	-1.1069283038617623	-1.0539882708843278	-0.9823217673129356	-0.9145836141530302	-0.8549182997143453	-0.8031874553807535
0.7425000000000005	0.9706980275940785	-0.1804636633675458	-1.061107773888659	-1.1421579974399036	-1.0872084025331246	-1.0131631634545528	-0.9432440943356473	-0.8816811010297424	-0.8283151689584861
0.7650000000000005	0.9981800816246931	-0.19320611087882378	-1.0951368922461926	-1.1774285792288914	-1.1204441382782713	-1.044010932203684	-0.9719068466531486	-0.9084443563739524	-0.8534423747162855
0.7875000000000005	1.0302291009592495	-0.20648993834655524	-1.1293002991440237	-1.2127426912199222	-1.1536968090707065	-1.0748657812932936	-1.0005725219259474	-0.9352084925816704	-0.8785695435738877
0.8100000000000004	1.0603055513140685	-0.22034211737958037	-1.1636038529651387	-1.2481023910857159	-1.186967380911797	-1.1057282113722704	-1.0292413036814927	-0.9619736866041187	-0.90369661009827
0.8325000000000004	1.090504147664773	-0.23475547392098395	-1.1980449233341854	-1.2835059828126663	-1.220254586738423	-1.136597254031455	-1.0579125277217452	-0.9887393197895662	-0.9288232351979893
0.8550000000000004	1.1256428839683579	-0.24975318363401802	-1.2326283170550758	-1.3189549944726262	-1.2535591072981385	-1.1674732916406154	-1.0865862643083382	-1.0155053620669896	-0.9539492398197067
0.8775000000000004	1.1686081799512866	-0.26536769293506324	-1.267361116283671	-1.3544520631022494	-1.2868820743945113	-1.1983569568469457	-1.1152629832427328	-1.042272266498262	-0.9790749898528365
0.9000000000000005	1.224987819033254	-0.2816318782296872	-1.3022504721571582	-1.389999793896328	-1.3202249302182925	-1.2292490322653098	-1.1439431981901818	-1.069040351023384	-1.0042007296510627
0.9225000000000004	1.2796721225905183	-0.2985776555911352	-1.3373031558993431	-1.425600620947482	-1.3535886487524047	-1.2601500265776506	-1.1726271636392418	-1.0958096007544813	-1.0293264249636516
0.9450000000000005	1.3113487748457704	-0.31608541413732427	-1.3724880264726629	-1.461240065839852	-1.3869647595339953	-1.2910542619792031	-1.201310734785982	-1.1225770587739747	-1.0544496997016406
0.9675000000000004	1.3576772218263364	-0.33408435236725875	-1.4077862543882407	-1.4969090239310237	-1.4203477188508693	-1.3219579514642907	-1.2299911978431293	-1.149340512575307	-1.0795688478877252
0.9900000000000004	1.4255794293395692	-0.3526077492747503	-1.443204895364358	-1.5326101960998488	-1.4537388327828364	-1.35286187214059	-1.258669012536966	-1.1761002979198811	-1.1046840477004343
1.0125000000000004	1.4612741103530122	-0.3716259051015306	-1.4787353049352392	-1.5683390455449049	-1.4871351959344938	-1.3837639251082687	-1.2873425586338483	-1.2028551630913833	-1.1297942646337473
1.0350000000000004	1.451603071084922	-0.3908589282728912	-1.5143063230694618	-1.6040631085335464	-1.520517954305889	-1.414651616275148	-1.316002909517043	-1.2295983077789678	-1.1548941878045849
1.0575000000000006	1.4388598208803696	-0.41013751776247825	-1.5498747073640051	-1.6397624977762943	-1.5538753608523308	-1.4455170036413656	-1.3446442431784174	-1.2563252468440238	-1.1799801635259186
1.0800000000000005	1.4280263734558456	-0.4294834034201411	-1.5854450694031195	-1.6754386943736255	-1.5872079948800362	-1.4763604827375731	-1.3732667990756084	-1.2830361638199486	-1.2050524634228403
1.1025000000000005	1.4190284288363657	-0.4489281047815362	-1.621024292280429	-1.7110942931185127	-1.6205171496485133	-1.507182654863672	-1.4018710083588546	-1.3097313594970126	-1.230111123428165
1.1250000000000004	1.4118014276921804	-0.46850333139719624	-1.6566194325010637	-1.7467318153286122	-1.6538040004328451	-1.5379842974527358	-1.4304572648522749	-1.3364110262179474	-1.2551563614687737
1.1475000000000004	1.4062901137235135	-0.48824088970457147	-1.6922373949400404	-1.782353800017627	-1.6870698193321032	-1.5687660266632228	-1.4590260281021166	-1.363075550168568	-1.280188476996758
1.1700000000000004	1.4024482591378196	-0.508172905227728	-1.727885245072809	-1.8179629107758333	-1.720315827930542	-1.599528546065189	-1.4875776415588333	-1.3897251292782904	-1.3052075626691695
1.1925000000000003	1.400238567689224	-0.5283316517614862	-1.7635699562000744	-1.85356162083221	-1.7535432187653806	-1.6302725790416872	-1.5161126587936393	-1.416360120069662	-1.3302138829949683
1.2150000000000005	1.399632773695573	-0.5487496730730226	-1.799298528670645	-1.8891525012335486	-1.7867532518229237	-1.660998762498971	-1.544631433168636	-1.4429807409812698	-1.355207635217601
1.2375000000000005	1.4006119895075908	-0.56945976188629	-1.835077931288274	-1.9247381454407302	-1.8199471523496735	-1.6917078393624183	-1.5731343941139344	-1.4695873518087537	-1.3801890124969454
1.2600000000000005	1.4031673509940648	-0.5904949892254396	-1.870915302716168	-1.9603211514501948	-1.8531262108683113	-1.7224004818911463	-1.6016220227764768	-1.4961801976968776	-1.4051582240756861
1.2825000000000004	1.4073010846655276	-0.6118887285735033	-1.9068175382588588	-1.99590397693684	-1.886291478462926	-1.7530773374179747	-1.6300946541628973	-1.522759569611379	-1.430115394533685
1.3050000000000006	1.4130281491194983	-0.6336746845374781	-1.9427918021219752	-2.031489301744688	-1.9194443494945057	-1.7837392054088281	-1.6585528489674781	-1.5493257623897603	-1.4550608759265988
1.3275000000000003	1.4203787444672467	-0.6558868757471401	-1.9788450847068046	-2.0670796308340607	-1.9525859903054101	-1.8143866492043517	-1.686996878439733	-1.5758790218824674	-1.479994707859112
1.3500000000000003	1.4294021580018792	-0.6785597108195228	-2.014984521107403	-2.102677497091727	-1.9857177027314168	-1.8450204451748495	-1.7154272478816754	-1.6024196651772318	-1.5049172445775616
1.3725000000000005	1.4401728107741587	-0.701727956578502	-2.0512170814785184	-2.138285514026865	-2.0188405161989254	-1.875641129825985	-1.7438444731772282	-1.628948123556219	-1.5298286509638377
1.3950000000000005	1.4528001374559645	-0.7254267790487361	-2.087549971505951	-2.1739062628555845	-2.0519558601061068	-1.9062497406872947	-1.7722489971976634	-1.6554644902193867	-1.554729085614075
1.4175000000000004	1.467445693089158	-0.7496918080565427	-2.12399027449638	-2.209542290293566	-2.085064889525733	-1.9368464557824199	-1.8006409131444716	-1.6819690010099528	-1.5796186378687507
1.4400000000000004	1.484355301052226	-0.7745590368665993	-2.1605451240843028	-2.2451961428148475	-2.1181688042287536	-1.967432374852092	-1.8290209703874178	-1.708462097060996	-1.60449772101405
1.4625000000000006	1.5039269764873429	-0.800065005799657	-2.197221722071174	-2.2808704265219863	-2.1512688607416575	-1.998007984128653	-1.8573895248207344	-1.734944007674721	-1.6293663909311806
1.4850000000000005	1.5268779390828557	-0.8262466769430417	-2.2340271606366255	-2.3165676913259943	-2.1843662715045298	-2.0285741401814406	-1.8857470534611098	-1.7614150668289277	-1.6542249776234321
1.5075000000000005	1.5547165376886465	-0.8531415801900593	-2.270968721532812	-2.35229049991713	-2.2174623106911193	-2.0591313588069986	-1.9140938858016612	-1.7878754639690795	-1.6790735911182237
1.5300000000000005	1.5910150371769793	-0.8807876904165036	-2.3080535354929883	-2.388041489270496	-2.2505580924598085	-2.0896800977169794	-1.9424302187856035	-1.8143254186572761	-1.7039123374066305
1.5525000000000007	1.6413664016194696	-0.9092236376928509	-2.3452888936190943	-2.4238231945545667	-2.2836549784287885	-2.1202218710029164	-1.9707571707949385	-1.8407656026282913	-1.728741685229377
1.5750000000000006	1.6711002334971412	-0.9384710758807068	-2.3826776710128943	-2.4596361759936594	-2.3167529551725745	-2.1507558410370677	-1.9990740232542912	-1.8671955038429593	-1.7535613005878112
1.5975000000000004	1.678921680723282	-0.9683523071605551	-2.4201729666266956	-2.495458922563739	-2.3498393929319494	-2.181273810015864	-2.0273747980424393	-1.8936105393017493	-1.778367503860376
1.6200000000000003	1.6884648605202415	-0.9988407515124946	-2.4577657490732117	-2.5312865899107524	-2.3829112780273993	-2.211773570353675	-2.05565794832598	-1.9200094659121552	-1.8031593022907018
1.6425000000000003	1.6997822873530002	-1.0299747874692764	-2.495463296146097	-2.5671218192870797	-2.415969782737226	-2.2422559091411363	-2.0839239222329367	-1.9463926617814975	-1.8279369572978017
1.6650000000000003	1.7129392218230897	-1.0617933287398	-2.5332726396891667	-2.602967145918505	-2.4490161992061155	-2.2727215136852217	-2.112173125844036	-1.972760346253677	-1.852700703607678
1.6875000000000004	1.7280157833520657	-1.09433580633863	-2.5712010788332935	-2.6388251498617588	-2.4820517516708818	-2.3031710256333824	-2.1404059921091796	-1.9991128431049443	-1.8774506132824749
1.7100000000000004	1.745109684037991	-1.1276421988648258	-2.609255819529756	-2.6746983288308317	-2.5150776119179734	-2.333605053722177	-2.1686229170476143	-2.025450382655329	-1.9021868862547069
1.7325000000000004	1.7643398209704995	-1.1617530828403109	-2.6474440999436784	-2.7105892632934765	-2.5480949722140758	-2.364024448060111	-2.1968243956841205	-2.0517733122766386	-1.926909960042963
1.7550000000000003	1.7858510555859632	-1.196709594641587	-2.685773197115404	-2.7465005797616793	-2.58110513990102	-2.394429808675306	-2.225010745573594	-2.078081853888919	-1.9516197728194147
1.7775000000000005	1.8098206966780273	-1.232553562062047	-2.72425040098086	-2.782434746262712	-2.6141092555773113	-2.4248217628456836	-2.2531824880478153	-2.1043762675889246	-1.976316602729021
1.8000000000000005	1.8364674910627263	-1.2693274059011106	-2.762883025089242	-2.8183944193370065	-2.647108533084287	-2.4552011018957773	-2.2813400595615176	-2.13065698080518	-2.001000711592096
1.8225000000000005	1.8660644267820008	-1.3070742477220678	-2.8016783735378823	-2.854382150191561	-2.6801042747595227	-2.485568375003016	-2.3094837339292926	-2.156924174637976	-2.0256722469150397
1.8450000000000004	1.89895759841581	-1.345837939828837	-2.840643801204492	-2.890400326481739	-2.713097601108845	-2.5159243357948364	-2.337614098388569	-2.18317812617487	-2.0503313261245966
1.8675000000000006	1.9355951975610315	-1.3856629962068305	-2.879786688705858	-2.9264516924482464	-2.7460896413235565	-2.546269565765671	-2.3657314573501056	-2.2094190838123327	-2.074978290838367
1.8900000000000006	1.9765745711275764	-1.4265947375899763	-2.9191146013468456	-2.962538764811539	-2.7790817946909065	-2.5766049271384777	-2.3938362513684748	-2.2356473942782493	-2.0996132299366406
1.9125000000000005	2.0227246354753143	-1.468679265401063	-2.958634818106511	-2.998664262248577	-2.8120752966214253	-2.606931063506627	-2.421929042340546	-2.2618633458725874	-2.124236453251011
1.9350000000000003	2.0752665319606134	-1.5119634597515674	-2.998354835390668	-3.034830544308815	-2.845071188872054	-2.637248451700361	-2.4500100058439993	-2.288067130622159	-2.148848078465452
1.9575000000000002	2.136175963129556	-1.5564950567224378	-3.03828221002577	-3.071040317928292	-2.8780708070547996	-2.667557986562849	-2.478079730446695	-2.3142590923485367	-2.1734483004633804
1.9800000000000004	2.2091246651272716	-1.6023226459400148	-3.0784244221142334	-3.107296115037524	-2.9110752483172986	-2.6978602517830583	-2.5061386514428032	-2.3404395942682554	-2.1980373609040083
2.0025000000000004	2.3017848139417696	-1.6494957334563352	-3.1187890616056655	-3.143600504941891	-2.9440858477878504	-2.728155950051439	-2.534187077544335	-2.366608807797394	-2.222615435102498
2.0250000000000004	2.4241241278053804	-1.698064733611754	-3.15938373772884	-3.1799561506372345	-2.9771037880160014	-2.758445781018663	-2.562225623233512	-2.392767028765787	-2.24718273399335
2.0475000000000003	2.542821264141795	-1.748024092580035	-3.200201798631167	-3.2163588541231087	-3.010126629325384	-2.7887279880231093	-2.590252785758432	-2.4189132916440093	-2.271738449844965
2.0700000000000003	2.69879039789411	-1.7992027222319742	-3.241195509854589	-3.2527874293995405	-3.043141326077432	-2.8189938256848834	-2.6182623473636752	-2.4450426932043827	-2.2962786812613896
2.0925000000000002	2.732636492123708	-1.851451638016119	-3.282322514885709	-3.2892212082700034	-3.0761361309879067	-2.849235501257546	-2.646248626397162	-2.471151044354985	-2.3208001248406758
2.1150000000000007	2.72710714305985	-1.904011966241871	-3.3233890657768455	-3.3255729538306906	-3.1090605078496703	-2.8794195593692216	-2.6741876063436316	-2.497219943226679	-2.3452882304521494
2.1375000000000006	2.728175036279605	-1.956825357412955	-3.364377193447858	-3.3618340056592513	-3.141909242934885	-2.9095424376406998	-2.702076627990181	-2.523247493335983	-2.3697414941846677
2.1600000000000006	2.737936929819056	-2.009932577693935	-3.4052936983315827	-3.398006598874893	-3.174683442423472	-2.9396048328723445	-2.729916312073872	-2.549233993231341	-2.3941601397380476
2.1825000000000006	2.7605564729501637	-2.063374742988655	-3.4461453956288137	-3.4340936340040322	-3.2073844354987533	-2.969607470007895	-2.7577069031155523	-2.5751797319021583	-2.4185443896725225
2.2050000000000005	2.805663749231015	-2.117193381516165	-3.4869391471921807	-3.470097133171491	-3.2400131826007605	-2.9995508564231947	-2.785448815980417	-2.601084919671482	-2.4428943414140263
2.2275000000000005	2.8932408581865383	-2.1714304260200463	-3.5276816185145563	-3.5060195014816036	-3.2725708703757976	-3.02943564417925	-2.813142435881346	-2.626949876763436	-2.4672102764818917
2.2500000000000004	2.974320392958704	-2.226127331632506	-3.56837945552841	-3.541863068851539	-3.3050587927177233	-3.059262622032228	-2.84078830967019	-2.652774849804044	-2.491492270967412
