T(K)	v(THz2π)	w(THz2π)	E(meV)	M(mₑ)	R(Å)	κ(N/m)	ReΣ(ps⁻¹)	ImΣ(ps⁻¹)	μ(cm²V⁻¹s⁻¹)
1.0	13.057980600976343	11.54056909211123	-276.83691943355154	0.7035510337417223	23.0480425191817	0.0007376657617315946	-1.9309854821151777e-12	9.83082231055444e-5	3.2556186937483687e7
2.0	12.798749742141258	11.279169100543381	-276.67322729920625	0.7075854551249648	23.046010317909374	0.0007230851609386762	-6.833056519142023e-13	0.005778661480599628	553855.057898953
3.0	12.501710450137347	10.97994347175161	-276.53711417453053	0.7124209494249912	23.049605698846975	0.0007061932943582246	-3.8587325664274924e-13	0.05031133904662224	63614.70295891144
4.0	12.187593337177756	10.662397197308385	-276.4222084480525	0.7179996189960134	23.03971677714656	0.0006887450212023765	-2.577993341237192e-13	0.15903004127869186	20125.385513213663
5.0	11.888874349356662	10.357857827396131	-276.32416541020734	0.7240017255421297	22.996700891304787	0.0006731205575184212	-1.8655962549052083e-13	0.3275270887731463	9771.835669851214
6.0	11.629268613597588	10.089432543790197	-276.23926147980643	0.7300781316669843	22.909466048702438	0.0006609294269008844	-1.3899891864259602e-13	0.5384680937967607	5943.789290000101
7.0	11.419916299260953	9.868144262365856	-276.16451949715594	0.7359577452132925	22.775598881662575	0.0006528460324618316	-1.0960256411669043e-13	0.7746500129622601	4131.595992204395
8.0	11.26256859869864	9.695950436219587	-276.09769506286995	0.7414675396311686	22.598759687564428	0.0006488891300769365	-9.613189914265379e-14	1.0229595087411116	3128.707306171531
9.0	11.15354986594739	9.569554191981338	-276.03714094140497	0.7465189428690867	22.385933932935256	0.000648717403887543	-8.064965788405426e-14	1.2744601780873033	2511.2914031722003
10.0	11.08672546532802	9.483262044631125	-275.98165638241943	0.7510850238072121	22.145276739247247	0.0006518382411182702	-6.965208385482811e-14	1.5233686075483985	2100.9628746824974
11.0	11.055334327920583	9.430746625387936	-275.93036243543946	0.7551785153800218	21.884707077424345	0.0006577317347352481	-6.086638751872822e-14	1.7663258446903845	1811.9764813139402
12.0	11.052967149126426	9.405987441513997	-275.8826089279207	0.7588343600463409	21.611160855440207	0.0006659144472779123	-5.29848372167968e-14	2.0012669521281667	1599.2573532044137
13.0	11.073991893931384	9.403681530263096	-275.8379085226175	0.7620976025003943	21.330317316573126	0.0006759655123843283	-4.765988318121967e-14	2.227421212041195	1436.8817498972278
14.0	11.113670887985078	9.419359202244491	-275.79589035151275	0.7650157282753054	21.04660669327391	0.0006875322910127485	-4.289094367050369e-14	2.4445029042271065	1309.280869898533
15.0	11.168120380957431	9.449349196121547	-275.75626772465046	0.7676343396879224	20.763356625648807	0.0007003258822080285	-3.887204395307379e-14	2.6524818474377967	1206.6212223120642
16.0	11.234205021292674	9.490681438709693	-275.71881547156613	0.7699950201099687	20.482985746066422	0.0007141126665270635	-3.544823161855232e-14	2.8518959493307174	1122.2502313476966
17.0	11.309415424485767	9.540973243010887	-275.683353917934	0.7721345335761355	20.20719536065962	0.0007287050357835785	-3.160640859099377e-14	3.043191971272799	1051.7052223877113
18.0	11.39175186859978	9.598320850050808	-275.64973744228814	0.7740847738066742	19.937137313140898	0.0007439527792780367	-2.9146320672042325e-14	3.2269812173302044	991.8064820854075
19.0	11.47962325196062	9.661205033697769	-275.61784622076465	0.7758730925956222	19.67355147831991	0.0007597356801384111	-2.698569175662197e-14	3.403819404086156	940.2792889287335
20.0	11.571763423086288	9.728412833342595	-275.5875802139547	0.7775227884420642	19.416873897920997	0.000775957419177125	-2.5101881510740042e-14	3.574050221524689	895.4941006818325
21.0	11.667163792679592	9.798974446872537	-275.5588547475187	0.7790536337854077	19.167319641060185	0.0007925406802631025	-2.3378200391901702e-14	3.7385578929193413	856.0896957026225
22.0	11.765019933554536	9.872113170144418	-275.5315972370112	0.7804823786726354	18.924945216204087	0.0008094232783435377	-2.182937266983046e-14	3.8977928020357697	821.1162192213893
23.0	11.864689642421181	9.947206040533068	-275.5057447412737	0.7818232032229817	18.689695044535455	0.0008265551212453618	-2.059421521609415e-14	4.052077740635594	789.8517979603055
24.0	11.965660133369717	10.023753017846337	-275.48124212003535	0.7830881102952492	18.46143579820173	0.0008438958336038597	-2.0135222484230597e-14	4.202190220246295	761.6363660777757
25.0	12.067522381720773	10.101352857022636	-275.4580406344871	0.784287259556253	18.239981636828386	0.0008614128978240928	-1.7767007100116466e-14	4.347633810828315	736.1569598949701
26.0	12.169951008158462	10.179684170721018	-275.4360968738892	0.7854292486294298	18.025112681059312	0.0008790801944463477	-1.6784873841657866e-14	4.489555238060932	712.8859584537131
27.0	12.27268843074464	10.258490493370397	-275.41537192281817	0.7865213485603471	17.816588487907477	0.0008968768490711918	-1.5585044530498166e-14	4.628061853952375	691.5510185289954
28.0	12.375532297421248	10.33756842330207	-275.395830706401	0.7875697008788666	17.614157841269215	0.0009147863139010026	-1.5344966943132478e-14	4.763521908948578	671.8854137951033
29.0	12.478325442136242	10.416758134325832	-275.37744146747946	0.7885794828720615	17.417565826564292	0.0009327956288980894	-1.457628977464512e-14	4.8961806580424545	653.681126667325
30.0	12.580947789120083	10.495935717339671	-275.3601753418383	0.7895550467530371	17.22655890100572	0.0009508948209276896	-1.3880538819581942e-14	5.026259905583225	636.7639057743036
31.0	12.683309769992325	10.575006943522764	-275.3440060066532	0.7905000374503527	17.040888481025767	0.0009690764096082336	-1.3343395371658571e-14	5.1541558420348075	620.9631580818509
32.0	12.785346925115253	10.65390214055698	-275.3289093839991	0.7914174928632499	16.8603134294875	0.0009873349964796274	-1.2862606971148293e-14	5.280038569929904	606.1586192084285
33.0	12.887015441149648	10.732571948816453	-275.31486338621835	0.7923099296717044	16.684601724226063	0.0010056669200428695	-1.2300365174419332e-14	5.4042171264248005	592.2302553808191
34.0	12.98828843698378	10.810983780996793	-275.30184769361415	0.7931794171666805	16.513531516118906	0.0010240699636425024	-1.2000227637649134e-14	5.526780093209887	579.096840282842
35.0	13.089152855042837	10.88911885080881	-275.28984355762714	0.7940276410638822	16.346891731602085	0.0010425431064240267	-1.1466926890283515e-14	5.6480096359705065	566.6670376290889
36.0	13.18960684815083	10.966969667579	-275.2788336246241	0.7948559588689678	16.184482335773666	0.0010610863099747487	-1.1030126183442377e-14	5.767471334282893	554.9296569349832
37.0	13.289657576713328	11.044537916774328	-275.26880177684154	0.7956654480524866	16.026114343818907	0.0010797003349866765	-1.0800764262173358e-14	5.88697949641062	543.6643512802065
38.0	13.38931934913722	11.121832663575217	-275.2597329880396	0.7964569480541283	15.87160964756471	0.0010983865835233067	-1.2449163964377794e-14	6.005372522653772	532.9462705007412
39.0	13.48861205193117	11.198868829372266	-275.2516131921254	0.7972310969506504	15.720800708377606	0.0011171469633725736	-1.186674408529435e-14	6.123128192750349	522.6970248157351
40.0	13.587559826035562	11.275665900580382	-275.2444291634883	0.7979883634789806	15.57353015589214	0.0011359837716176564	-1.3040415257493025e-14	6.240582394829271	512.8593272909612
41.0	13.686189953566988	11.352246836346547	-275.2381684081109	0.7987290749949496	15.429650323133854	0.0011548995950301075	-1.26430193848517e-14	6.35759233948114	503.4202757921973
42.0	13.784531925040703	11.428637147243615	-275.2328190647244	0.7994534418608099	15.289022741714792	0.0011738972252428028	-9.37384171552032e-15	6.474757281762658	494.31055862601477
43.0	13.88261666171227	11.504864121326822	-275.22836981540394	0.800161578685432	15.151517615426748	0.001192979586926627	-9.31953088338138e-15	6.592059260815658	485.5145808443388
44.0	13.980475871344407	11.580956177346684	-275.2248098050686	0.8008535227851787	15.017013286329357	0.0012121496774065198	6.376231207736828e-15	6.70948878041009	477.01710125228595
45.0	14.07814151866657	11.656942327664852	-275.2221285693907	0.8015292501877781	14.885395704093384	0.0012314105163217142	1.53839172045767e-14	6.8272537560625794	468.78891619838885
46.0	14.175645394287162	11.732851735728447	-275.22031597063017	0.8021886894629916	14.756557906678925	0.0012507651040819957	1.5097104436518284e-14	6.945607400156037	460.8007197245347
47.0	14.273018767901416	11.80871335488195	-275.2193621409161	0.8028317336316922	14.63039951829069	0.001270216387997088	1.3938388946957228e-14	7.064515300508748	453.04465384701916
48.0	14.37029211344353	11.88455563696095	-275.2192574324934	0.8034582503768468	14.50682626883862	0.0012897672350696684	1.3767262605904799e-14	7.184030248181051	445.5077134072914
49.0	14.467494895402346	11.960406300557537	-275.21999237445215	0.8040680907555434	14.385749537756421	0.0013094204105462282	1.0695115699584135e-14	7.303755756335475	438.2048080043915
50.0	14.564655406897076	12.036292150114766	-275.2215576354537	0.8046610965896512	14.267085923938287	0.001329178561414947	1.0094401838810247e-14	7.425076171946483	431.04485594481577
51.0	14.661807312434158	12.11224512486236	-275.2239439919745	0.8052370157556449	14.150753848134348	0.0013490451024868002	9.63469916839563e-15	7.547381803116255	424.0597564038006
52.0	14.758956260452381	12.188271263691965	-275.22714230159227	0.8057959620809071	14.036688149926329	0.0013690197159015182	9.220943389145935e-15	7.670780300239121	417.23798148881747
53.0	14.856146442854808	12.264412501638537	-275.2311434808493	0.8063375102747883	13.924809793274607	0.001389107329043583	1.4372235486543173e-15	7.795332878236089	410.57141996483506
54.0	14.95339395724473	12.340684756991607	-275.23593848724965	0.8068616088370185	13.815055489479672	0.0014093091277779513	1.7771935926095414e-15	7.921084592735251	404.0533656023952
55.0	15.050720106327715	12.41710884061544	-275.2415183049542	0.8073681282123716	13.707362427016793	0.0014296270471708097	1.8277609349680095e-15	8.048172898051412	397.6729786323126
56.0	15.148144747087223	12.493704262071349	-275.24787393376977	0.8078569539799804	13.60167099282593	0.0014500628737480602	2.348890176720327e-15	8.176627421306723	391.42555041409383
57.0	15.245686314272053	12.57048923656228	-275.2549963810441	0.8083279885890418	13.497924521800297	0.0014706182474934204	2.2810829436580232e-15	8.446696630508525	378.91036329586643
58.0	15.34336185421526	12.647480703162064	-275.2628766561068	0.8087811526494116	13.396069067651057	0.0014912946649401821	1.8743962985249616e-15	8.43737394379361	379.3290317860358
59.0	15.441187066619902	12.724694352003581	-275.27150576692065	0.8092163858385732	13.296053193710632	0.0015120934831193353	1.9552201884716315e-15	8.569796704509796	373.46753946119793
60.0	15.539176352285985	12.802144658418436	-275.2808747186349	0.8096336474800315	13.197827782247213	0.0015330159241575385	1.8144888714986356e-15	8.703603698927662	367.72594429021194
61.0	15.637342865120937	12.879844922369431	-275.29097451375577	0.810032916841083	13.10134586087831	0.0015540630803548114	1.7713631680779377e-15	8.838811736432033	362.10080996791544
62.0	15.73569856704173	12.957807311769184	-275.3017961536788	0.8104141931925388	13.006562444719155	0.0015752359195973559	1.7724320660083842e-15	8.975389890087317	356.59073623650903
63.0	15.834254284618952	13.036042908509643	-275.31333064134645	0.8107774956678663	12.913434392960667	0.001596535290984676	1.7315629290858447e-15	9.145124188758949	349.972381222555
64.0	15.933019766542264	13.114561756246795	-275.32556898482454	0.8111228629543665	12.821920278632138	0.0016179619305739165	9.586104984718724e-16	9.253020157734667	345.8914856292192
65.0	16.03200374132196	13.193372909304165	-275.338502201608	0.811450352842734	12.731980270325392	0.0016395164671852516	9.835282521863688e-16	9.39399338391872	340.7007816712816
66.0	16.131213974213395	13.272484481663028	-275.35212132349204	0.811760041665902	12.64357602492956	0.0016611994281443719	-5.167425315340503e-15	9.536545504874411	335.60799214768747
67.0	16.23065732220123	13.351903694867687	-275.3664174018601	0.8120520236590979	12.556670590559648	0.0016830112448097026	-5.117914259121385e-15	9.680450061560087	330.61901756251217
68.0	16.33033978990297	13.431636927461938	-275.38138151326245	0.8123264102139692	12.471228317720314	0.0017049522583102174	-5.2989532417412235e-15	9.825726770418697	325.730703051045
69.0	16.430266581937673	13.511689761707094	-275.39700476517316	0.8125833291030163	12.38721477919027	0.00172702272486106	-5.186636627703887e-15	9.972403916571796	320.9397569223413
70.0	16.53044215393989	13.592067029566062	-275.41327830182973	0.8128229236546876	12.304596697054318	0.001749222820976287	-5.078137447404739e-15	10.120385021157865	316.2469493230589
71.0	16.630870261535513	13.672772857254744	-275.43019331007395	0.8130453518992705	12.223341876337445	0.0017715526484844975	-4.973272206485703e-15	10.269723322944252	311.648209817437
72.0	16.731554007210708	13.753810708243712	-275.44774102512395	0.813250785695904	12.14341914457549	0.0017940122393393888	-5.018697890657158e-15	10.42053914362384	307.13774448746403
73.0	16.832495885007305	13.83518342459914	-275.4659127362206	0.8134394098500859	12.064798296728707	0.0018166015602161505	-4.287848669197729e-15	10.572400915415988	302.7260235893188
74.0	16.933697823026222	13.91689326660131	-275.4846997920998	0.8136114212294953	11.987450044895894	0.001839320516890446	-5.576440350221768e-16	10.725292151416136	298.41060212922645
75.0	17.035161223751896	13.998941950612434	-275.5040936062518	0.8137670278846908	11.911345972338056	0.001862168958400358	-5.466852099670203e-16	10.879631288595325	294.17733046440213
76.0	17.136887002223737	14.081330685181511	-275.52408566193856	0.8139064481802916	11.836458491371527	0.001885146680992726	-5.3606867651704075e-16	11.035134444642136	290.0318890514205
77.0	17.238875622093847	14.164060205389008	-275.54466751694315	0.8140299099414566	11.76276080473292	0.0019082534318570082	1.4266194324458928e-15	11.191747111395717	285.9733031009149
78.0	17.341127129641983	14.247130805468368	-275.56583080803625	0.8141376496192669	11.690226870057495	0.0019314889126535084	1.3995503720373597e-15	11.349424083952684	282.00029052058284
79.0	17.44364118579325	14.330542369718666	-275.58756725514496	0.8142299114785652	11.618831367153449	0.0019548527828393662	1.3732943124099605e-15	11.508173734496362	278.11023388725573
80.0	17.54641709623987	14.414294401779499	-275.60986866521955	0.8143069468103459	11.548549667779817	0.0019783446628032597	1.4083539742475424e-15	11.66823306766474	274.29524850556544
81.0	17.649453839716333	14.498386052291345	-275.63272693579177	0.8143690131711749	11.479357807676468	0.0020019641368122904	1.3825120546687335e-15	11.829044557813763	270.56630594918295
82.0	17.75275009453935	14.582816145026838	-275.65613405822637	0.8144163736506651	11.411232460611261	0.00202571075578327	1.3574178652750841e-15	11.990797783575527	266.91642596958127
83.0	17.856304263458124	14.667583201516145	-275.6800821206685	0.8144492961688088	11.34415091424396	0.0020495840398816064	1.3330410843472912e-15	12.153538217002518	263.3423149514167
84.0	17.960114496935837	14.752685464265696	-275.7045633106901	0.8144680528032293	11.278091047619473	0.00207358348096107	1.3093529967228528e-15	12.316897194798308	259.84960646319377
85.0	18.064178714914203	14.838120918602945	-275.7295699176458	0.8144729191474098	11.213031310129802	0.002097708544848791	1.2863263892091936e-15	12.481547178621419	256.42180757830175
86.0	18.16849462715928	14.923887313227704	-275.75509433474264	0.814464173699749	11.148950701798137	0.002121958673485769	1.263935453962622e-15	12.646622316966456	253.074758516523
87.0	18.273059752259606	15.009982179524838	-275.7811290608376	0.8144420972835984	11.085828754755624	0.0021463332869299783	1.2421556991463267e-15	12.812478239276592	249.79873753890274
88.0	18.377871435353505	15.096402849700715	-275.8076667019707	0.8144069724980387	11.023645515795915	0.002170831785229738	1.2209638662459266e-15	12.979127993018132	246.5913650468371
89.0	18.482926864656363	15.183146473800763	-275.8346999726463	0.8143590831990912	10.962381529904924	0.0021954535501744936	1.1178250568347806e-15	13.146642141999697	243.4493047233072
90.0	18.58822308686566	15.270210035673912	-275.86222169687517	0.8142987140107208	10.902017824673914	0.002220197946931123	1.0991242567124088e-15	13.31451229697165	240.37988155554976
91.0	18.693757021506766	15.35759036793614	-275.89022480898893	0.8142261498650867	10.842535895515697	0.0022450643255719446	1.08091218849089e-15	13.483454936696893	237.36801168113732
92.0	18.799525474280625	15.44528416598412	-275.91870235423914	0.8141416755714317	10.783917691610835	0.0022700520225007593	1.0631711233038075e-15	13.652502094094976	234.42888833544035
93.0	18.905525149478287	15.533288001115785	-275.94764748919465	0.8140455754126773	10.726145602521663	0.0022951603617832007	1.0458841721094137e-15	13.82212483187747	231.55201735225714
94.0	19.011752661521687	15.621598332808707	-275.9770534819486	0.8139381327689196	10.669202445415335	0.0023203886563878304	1.0290352364453807e-15	13.992205083359373	228.73741985973965
95.0	19.118204545681692	15.71021152020022	-276.0069137121482	0.8138196297670123	10.613071452845329	0.0023457362093430596	1.0126089625909078e-15	14.162790081115384	225.9823714526099
96.0	19.22487726803337	15.799123832823408	-276.03722167085897	0.8136903469551111	10.557736261047433	0.0023712023148159287	9.965906988674497e-16	14.333779289008959	223.28660323171772
97.0	19.331767234682086	15.88833146062676	-276.0679709602748	0.813550563001537	10.50318089871029	0.0023967862591157698	9.809664558337937e-16	14.50511341980484	220.6491460139867
98.0	19.438870800320377	15.977830523332164	-276.0991552932864	0.8134005544167677	10.449389776183251	0.0024224873216294536	2.9933162682700136e-15	14.676856114030778	218.06719804633798
99.0	19.546184276170674	16.067617079182078	-276.1307684929175	0.8132405952973595	10.396347675089633	0.0024483047756941293	2.9472081256332967e-15	14.8489364591987	215.54007572934742
100.0	19.653703937307537	16.15768713306624	-276.1628044916417	0.8130709570916287	10.34403973832104	0.0024742378894047753	2.902202393048746e-15	15.021276376947233	213.06717276221238
101.0	19.761430397270594	16.24804085526698	-276.19525733058697	0.8128918463590648	10.292450820674937	0.0025002866335336322	2.858262515415587e-15	15.193855716761348	210.6470502668541
102.0	19.869346775301942	16.338661532828624	-276.22812115864053	0.8127037147051797	10.2415686780605	0.002526448146412622	2.815354794217689e-15	15.366687198265442	208.277870670604
103.0	19.977462380226328	16.429557687544417	-276.26139023146163	0.8125066383449081	10.191377561421083	0.002552723806221951	2.773445033909362e-15	15.539691594517977	205.95909960304675
104.0	20.085769037703827	16.520720970659738	-276.29505891041146	0.8123009382033459	10.141864605075407	0.002579112159955319	2.7325017363044977e-15	15.712874979689538	203.68906982668514
105.0	20.19426293423524	16.61214722429674	-276.329121661408	0.8120868696425415	10.093016619733337	0.002605612459805548	2.6924943926719966e-15	15.886191152356542	201.46684993408198
106.0	20.302940253880983	16.703832275585526	-276.3635730537148	0.8118646843604834	10.04482072401642	0.002632223956519712	2.653393743148938e-15	16.05960870007295	199.2913369614926
107.0	20.4117971824443	16.795771941574706	-276.39840775866935	0.811634630278578	9.997264336516272	0.0026589458998834714	2.6151717131653962e-15	16.233095812270708	197.16146112417113
108.0	20.520829911323233	16.887962033793155	-276.43362054836	0.8113969514429078	9.950335168087609	0.002685777539171262	2.5778013537296653e-15	16.406662867018852	195.0756783909893
109.0	20.630034641027947	16.980398362459074	-276.4692062942556	0.8111518879388715	9.904021214367406	0.0027127181235605978	2.5412567853062705e-15	16.580234333750386	193.03351354938337
