T(K)	v(ω₀)	w(ω₀)	E(meV)	Reχ(m₀/ω₀)	Imχ(m₀/ω₀)	μ(cm²V⁻¹s⁻¹)
1	3.642532355263973	1.2536847986879909	-925.9284535634055	-2.282786151765792e-25	7.466790336798012e-13	4.520825038640803e14
2	3.643447202694034	1.2491433322152636	-926.2067383811117	-4.1144887007667374e-26	7.557926310519126e-13	4.46631143596835e14
3	3.6443831052565243	1.2446585297446244	-926.4861193093086	-1.522143800237078e-26	4.1114457925230967e-13	8.210263351705864e14
4	3.6453412591041885	1.2402315093634204	-926.7665944130963	-7.558175121345874e-27	1.5237995699535518e-12	2.2152554298139484e14
5	3.6463229858663415	1.2358635228525512	-927.0481618484381	-4.409484919554271e-27	1.0095485024760299e-12	3.343678152172697e14
6	3.6473297682558217	1.2315559839651602	-927.3308198676216	-2.848498505009388e-27	7.418944658788108e-13	4.549980390120841e14
7	3.6483632765833645	1.2273105009683765	-927.6145667366891	-1.9740710599735897e-27	1.9291138645737814e-13	1.7498216840785452e15
8	3.6494253446699045	1.2231288249211292	-927.8994012579077	1.3914375256609605e-27	2.601900342033709e-13	1.2973614772075815e15
9	3.6505180882893717	1.2190130284335048	-928.185321725576	1.055727329253411e-27	8.385012683169752e-14	4.0257604834196845e15
10	3.651643837922447	1.2149653794876003	-928.472327013719	8.261326466167375e-28	3.429554606077098e-12	9.842692882936648e13
11	3.6528052200318992	1.2109884546039313	-928.7604160504487	6.627932488829332e-28	3.9212876765624674e-11	8.608410169607688e12
12	3.654005185113475	1.2070851626526546	-929.0495879450223	5.427881319045606e-28	3.9081306004215504e-10	8.63739116324223e11
13	3.655247049006389	1.2032587888437407	-929.3398420058135	4.522278407859629e-28	2.6956165902680857e-9	1.2522571954315108e11
14	3.6565345329994603	1.1995130391730646	-929.6311777530606	3.823231962968943e-28	1.4156537703238411e-8	2.3844850641096874e10
15	3.6578717932504223	1.1958520772126502	-929.9235949167287	3.273061314795328e-28	5.964367733163842e-8	5.659619631630511e9
16	3.659263426056557	1.1922805413928383	-930.2170934061312	2.8327179535618438e-28	2.1008572228478192e-7	1.6067751937525578e9
17	3.6607144348883733	1.188803529935797	-930.5116732372674	2.475048530147349e-28	6.384663196049461e-7	5.28705300128664e8
18	3.6622301491543756	1.1854265436180367	-930.807334407143	2.180724774277158e-28	1.715692616812972e-6	1.9674883707072225e8
19	3.6638160925974153	1.182155383018279	-931.1040767109203	1.9357028655671675e-28	4.156498160169536e-6	8.121272141138348e7
20	3.66547780858878	1.1789960048707382	-931.4018995056039	-3.097121352633489e-28	9.220521962694547e-6	3.660969828980593e7
21	3.6672206575945685	1.175954349237763	-931.7008014309996	-5.340715446679246e-28	1.8967024182502077e-5	1.7797231863087468e7
22	3.66904960673733	1.1730361536850946	-932.0007801034263	-4.825796522183847e-28	3.6554923716556054e-5	9.234338163203232e6
23	3.6709690319892956	1.1702467717989542	-932.3018317996208	-3.4513244005346914e-28	6.6574426213181e-5	5.070423379209586e6
24	3.6729825506114326	1.1675910115349406	-932.6039511477295	-3.1470347067638e-28	0.00011539325259534992	2.9253055922819134e6
25	3.6750928962289446	1.1650730049757332	-932.9071308399814	2.087409471953452e-28	0.00019149961514888501	1.7627216998129925e6
26	3.677301842824693	1.162696116238519	-933.2113613783844	1.9176249925897702e-28	0.00030582524111859023	1.1037693484491694e6
27	3.6796101781500687	1.1604628895220948	-933.5166308613068	1.7673604281160321e-28	0.00047203437421936895	715118.5285754247
28	3.682017722406866	1.158375035317351	-933.8229248155506	1.633691732141065e-28	0.0007067680605172636	477611.4626370149
29	3.6845233727517477	1.1564334431894971	-934.1302260801049	-4.057430547990965e-28	0.0010298366411921243	327780.65338403697
30	3.6871252246755875	1.154638248044441	-934.438514720088	-3.770069258406035e-28	0.0014643569510677972	230517.92589411352
31	3.6898206320747047	1.1529888712295069	-934.7477680142154	-3.511067587594638e-28	0.0020368332530916245	165728.1108389248
32	3.692606348367605	1.1514841134310105	-935.0579604598507	-3.2767483523778393e-28	0.0027771839718130947	121547.77305170707
33	3.6954786399156627	1.1501222371237303	-935.3690638271529	-3.064018334539914e-28	0.0037187176005854757	90773.36958193085
34	3.6984334024062893	1.1489010538128988	-935.6810472452472	-2.870260493162764e-28	0.004898062522130855	68917.15358952258
35	3.701466270190972	1.1478180090497891	-935.9938773178236	-2.693248521032851e-28	0.0063550565341052795	53116.8409466087
36	3.7045727155995722	1.1468702623897298	-936.307518263553	-2.531078652205771e-28	0.008132601698631448	41507.0772721577
37	3.7077481364997165	1.146054760434473	-936.6219320767806	0.0	0.010276490888683924	32847.83986919942
38	3.7109879313763243	1.1453683019102257	-936.9370787041198	0.0	0.012835211873668392	26299.56797373064
39	3.714287561968866	1.1448075943682656	-937.2529162328163	0.0	0.015859734188223448	21284.122616596567
40	3.7176426040472803	1.1443693025672	-937.5694010870534	0.0	0.019403283947485278	17397.082269289025
41	3.72104878725901	1.1440500889237766	-937.8864882287118	0.0	0.023521111463103563	14351.385038002623
42	3.724502025184518	1.1438466466316917	-938.2041313594677	0.0	0.02827025525263567	11940.483880042268
43	3.7279984368250703	1.143755726165436	-938.5222831214892	0.0	0.033709306618807326	10013.867414894927
44	3.731534360751654	1.1437741559366943	-938.8408952943765	0.0	0.0398981754137536	8460.550479519257
45	3.7351063630908103	1.1438988578712523	-939.1599189863617	0.0	0.04689786325827571	7197.780531487429
46	3.738711240435638	1.1441268586418039	-939.4793048181393	0.0	0.05477024305780088	6163.210317919122
47	3.74234601866176	1.1444552972390656	-939.799003098033	0.0	0.06357784517577285	5309.404969538166
48	3.7460079485122284	1.1448814294992338	-940.1189639875095	0.0	0.07338365599589768	4599.941533952015
49	3.7496944986990117	1.1454026301369118	-940.4391376563244	0.0	0.08425092393481046	4006.6092021728514
50	3.753403347157738	1.146016392763964	-940.7594744268376	0.0	0.09624297791171478	3507.3782467374
51	3.75713237116061	1.1467203284436907	-941.0799249072404	0.0	0.1094230546774562	3084.9122986357474
52	3.760879635949509	1.1475121625205262	-941.4004401136302	0.0	0.12385413822814666	2725.4682964808976
53	3.7646433835841195	1.1483897310664242	-941.720971581018	0.0	0.13959880874050706	2418.0759862804425
54	3.76842202134955	1.1493509764641625	-942.0414714634861	0.0	0.15671910008828363	2153.920785268806
55	3.7722141100265327	1.1503939423830554	-942.3618926238171	0.0	0.17527636849663972	1925.8758612131332
56	3.7760183524304325	1.1515167684986627	-942.682188712994	0.0	0.19533116899246944	1728.1447137696205
57	3.779833582272402	1.1527176850306433	-943.0023142400389	0.0	0.2169431389208865	1555.9861851721248
58	3.7836587534415895	1.1539950072101461	-943.3222246326992	0.0	0.24017089851415543	1405.5013709701427
59	3.787492929778557	1.155347129764865	-943.6418762895214	0.0	0.265071933785268	1273.4676293652076
60	3.7913352753864187	1.1567725214915592	-943.9612266238686	0.0	0.2917025183996244	1157.2081344403339
61	3.795185045506745	1.1582697199691119	-944.2802341004475	0.0	0.3201176185538201	1054.4890614073583
62	3.799041577972934	1.1598373264529187	-944.598858264908	0.0	0.3503708051674856	963.437941033399
63	3.802904285241222	1.1614740009797713	-944.917059767066	0.0	0.3825141833249834	882.4784592156827
64	3.8067726469911536	1.1631784577042494	-945.2348003782895	0.0	0.4165983133823226	810.2781895302319
65	3.8106462032799753	1.1649494604800026	-945.5520430035672	0.0	0.45267214258065647	745.7064293914009
66	3.8145245482308847	1.166785818693642	-945.8687516887568	0.0	0.4907829366738397	687.8000474436004
67	3.818407324231265	1.1686863833543482	-946.1848916234842	0.0	0.530976219174971	635.7356788092637
68	3.822294216615051	1.1706500434387141	-946.5004291401391	0.0	0.5732957074124787	588.80700267638
69	3.8261849488015156	1.1726757224869793	-946.8153317093877	0.0	0.6177832546011522	546.4060811209739
70	3.8300792778629367	1.1747623754452805	-947.1295679325906	0.0	0.6644788051525614	508.0079673139824
71	3.8339769904926446	1.1769089857463024	-947.4431075314914	0.0	0.7134203323015338	473.1579853349391
72	3.837877899346172	1.1791145626195336	-947.7559213355107	0.0	0.7646437879731511	441.46115150369764
73	3.8417818397284944	1.181378138621763	-948.0679812669601	0.0	0.8181830645752196	412.5733491000936
74	3.8456886666013457	1.1836987673771926	-948.3792603244528	0.0	0.8740699717624902	386.19394102752835
75	3.849598251886004	1.1860755215170906	-948.689732564782	0.0	0.93233409329815	362.0596195668975
76	3.8535104820379265	1.1885074908075555	-948.9993730834949	0.0	0.9930029000233547	339.93911510312546
77	3.85742525587098	1.1909937804552015	-949.3081579943869	0.0	1.0561016235606733	319.6288307849416
78	3.861342482610599	1.1935335095794295	-949.6160644081032	0.0	1.1216532316700363	300.9490969202492
79	3.8652620801556212	1.1961258098408507	-949.9230704100323	0.0	1.1896784093203845	283.74098788731595
80	3.8691839735321545	1.1987698242162754	-950.2291550376437	0.0	1.2601955326058614	267.8636119513621
81	3.8731080935205555	1.2014647059087753	-950.5342982574158	0.0	1.3332206419097268	253.19179475442968
82	3.877034375441233	1.204209617384412	-950.838480941478	0.0	1.4087674273280233	239.61409142531056
83	3.8809627580843533	1.2070037295257399	-951.1416848440832	0.0	1.4868472106684576	227.03107939181984
84	3.8848931827698583	1.20984622089324	-951.4438925780084	0.0	1.5674689288621069	215.35388734871202
85	3.888825592525981	1.2127362770863004	-951.7450875909705	0.0	1.6506391301403427	204.50292311928652
86	3.8927599313742918	1.2156730901954864	-952.0452541421388	0.0	1.7363619835645412	194.40677135524788
87	3.896696143711411	1.2186558583385023	-952.3443772788062	0.0	1.8246392483743967	185.0012419877053
88	3.900634173777685	1.221683785272603	-952.6424428132841	0.0	1.9154703015619154	176.22853606945637
89	3.904573965203984	1.2247560800765362	-952.939437300065	0.0	2.0088521349829866	168.03652257443795
90	3.9085154606289807	1.2278719568956549	-953.2353480133014	0.0	2.1047793830434265	160.37810416057835
91	3.912458601379256	1.2310306347438817	-953.5301629246356	0.0	2.20324432956584	153.21066420050397
92	3.9164033272059644	1.234231337357359	-953.8238706814105	0.0	2.304236874514112	146.49558422675486
93	3.920349576071861	1.2374732930938463	-954.1164605852879	0.0	2.4077446616856615	140.19780938583847
94	3.9242972839831554	1.240755734873203	-954.4079225712964	0.0	2.513753045446495	134.28547714352692
95	3.92824638486137	1.2440779001546336	-954.6982471873234	0.0	2.622245128158214	128.72958500484233
96	3.9321968104505114	1.2474390309456131	-954.9874255740648	0.0	2.7332017991681146	123.50369710407678
97	3.936148490255629	1.2508383738393827	-955.275449445442	0.0	2.8466017667937353	118.5836849630664
98	3.94010135150876	1.2542751800766019	-955.5623110694945	0.0	2.9624216549847757	113.94749513823386
99	3.9440553191593195	1.2577487056283037	-955.8480032497487	0.0	3.080635943237604	109.57494924701041
100	3.9480103158854964	1.261258211296615	-956.1325193070678	0.0	3.2012171298059977	105.44755742614484
101	3.9519662621239515	1.264802962830499	-956.4158530619823	0.0	3.324135710104319	101.54835920287474
102	3.955923076115676	1.2683822310539543	-956.6979988174966	0.0	3.449360281854431	97.861777125612
103	3.959880673965415	1.2719952920040922	-956.9789513423723	0.0	3.576857561432095	94.37348883236623
104	3.963838969712618	1.2756414270770342	-957.25870585488	0.0	3.706592514372834	91.07030940677672
105	3.9677978754124874	1.279319923179576	-957.5372580070161	0.0	3.838528327444681	87.94009014217474
106	3.9717573012251557	1.2830300728844866	-957.8146038691774	0.0	3.972626544600002	84.97162351885885
107	3.975717155511443	1.2867711745885142	-958.090739915286	0.0	4.108847118522509	82.15455999982767
108	3.9796773449345064	1.2905425326709095	-958.3656630083561	0.0	4.247148472690497	79.47933285104526
109	3.9836377745651688	1.2943434576513373	-958.6393703864948	0.0	4.387487590934807	76.93708987946223
110	3.987598347991075	1.2981732663466488	-958.9118596493266	0.0	4.5298200908237645	74.51963220627376
111	3.99155896742794	1.3020312820241138	-959.1831287448358	0.0	4.674100281601751	72.2193591903636
112	3.9955195338321157	1.3059168345516325	-959.4531759566116	0.0	4.820281231105224	70.02921840960273
113	3.999479947014225	1.3098292605430224	-959.721999891492	0.0	4.968314855290375	67.94266002874885
114	4.003440105752699	1.3137679034986618	-959.9895994675909	0.0	5.118152114472294	65.95359410562979
115	4.007399907907093	1.317732113939768	-960.2559739027054	0.0	5.269742835843422	64.05635676048126
116	4.011359250530228	1.321721249536959	-960.5211227030853	0.0	5.423036012256462	62.245673155381
117	4.01531802997915	1.3257346752316745	-960.7850456525633	0.0	5.577979805504515	60.51662768582665
118	4.019276142024166	1.329771763350909	-961.0477428020275	0.0	5.73452157789016	58.8646363160031
119	4.023233481956062	1.3338318937145037	-961.3092144592346	0.0	5.892608039430175	57.285420117883696
120	4.0271899446908055	1.3379144537346495	-961.5694611789482	0.0	6.052185321453113	55.77498196101655
121	4.031145424871593	1.3420188385083338	-961.828483753396	0.0	6.213198992710412	54.32958569729005
122	4.035099816968375	1.346144450901231	-962.0862832030336	0.0	6.375594182083828	52.94573611309223
123	4.039053015374205	1.3502907016244325	-962.3428607676107	0.0	6.53931571608764	51.620160546512516
124	4.043004914498795	1.35445700930292	-962.5982178975247	0.0	6.704307973113009	50.34979426400621
125	4.046955408858499	1.3586428005362947	-962.8523562454578	0.0	6.8705152229688755	49.13176321919427
126	4.050904393163324	1.3628475099519306	-963.1052776582857	0.0	7.037881482244682	47.96337192951905
127	4.054851762400916	1.367070580250123	-963.3569841692515	0.0	7.206350749369849	46.84208954973418
128	4.058797411916358	1.3713114622419338	-963.6074779903964	0.0	7.37586693003074	45.76553920114848
129	4.062741237489435	1.3755696148798815	-963.856761505238	0.0	7.546374009942182	44.731486497230044
130	4.066683135408285	1.3798445052805994	-964.1048372616895	0.0	7.717816034554197	43.73783018634429
131	4.070623002539215	1.3841356087411658	-964.351707965213	0.0	7.890137216499101	42.78259273145494
132	4.074560736394093	1.3884424087483658	-964.5973764721969	0.0	8.063281977327057	41.86391199984754
133	4.078496235193347	1.3927643969810137	-964.8418457835526	0.0	8.237195006293684	40.9800334787341
134	4.082429397926872	1.3971010733062676	-965.0851190385248	0.0	8.411821323921828	40.12930305221893
135	4.086360124410348	1.4014519457694325	-965.3271995087038	0.0	8.587106316514284	39.310160452956936
136	4.090288315340025	1.4058165305779604	-965.5680905922385	0.0	8.762995792465803	38.52113308316344
137	4.094213872342616	1.4101943520793725	-965.8077958082408	0.0	8.93943601457354	37.760830390023216
138	4.098136698023885	1.41458494273451	-966.0463187913762	0.0	9.11637379147488	37.027938394150105
139	4.102056696012652	1.418987843084085	-966.2836632866348	0.0	9.29375645038099	36.32121510080442
140	4.105973771003581	1.423402601711958	-966.5198331442768	0.0	9.471531805192038	35.63948620683878
141	4.109887828795194	1.4278287752022374	-966.7548323149462	0.0	9.649648860940728	34.98163839879541
142	4.11379877632719	1.4322659280928494	-966.9886648449489	0.0	9.828056382454642	34.34662093833733
143	4.117706521713695	1.43671363282394	-967.221334871688	0.0	10.006704556915771	33.73343593875606
144	4.121610974274245	1.4411714696830042	-967.4528466192538	0.0	10.185543946642023	33.14113894133889
145	4.125512044562919	1.4456390267459667	-967.6832043941602	0.0	10.364526050685825	32.568833874120074
146	4.129409644393917	1.4501158998145425	-967.9124125812262	0.0	10.543603066051084	32.01567102005897
147	4.133303686866008	1.454601692350447	-968.1404756395959	0.0	10.722728041041421	31.48084385212027
148	4.13719408638399	1.4590960154063655	-968.3673980988929	0.0	10.901854814783983	30.963586734893163
149	4.141080758678289	1.4635984875538706	-968.5931845555048	0.0	11.080938149213155	30.463172213694403
150	4.144963620822178	1.4681087348096031	-968.8178396689942	0.0	11.259933606226445	29.978909195531532
151	4.148842591247513	1.472626390556945	-969.0413681586316	0.0	11.43879755069963	29.51014087211731
152	4.152717589758132	1.4771510954681268	-969.2637748000466	0.0	11.617487598940972	29.056241657580756
153	4.156588537541895	1.4816824974216678	-969.485064421993	0.0	11.795961967243345	28.616617115769035
154	4.16045535717971	1.486220251419561	-969.7052419032252	0.0	11.974179666919179	28.19070170304426
155	4.164317972655269	1.4907640195020697	-969.924312169482	0.0	12.15210134279679	27.777955236430522
156	4.168176309360698	1.4953134706612214	-970.1422801905734	0.0	12.32968772000153	27.377865100441863
157	4.172030294102011	1.4998682807529502	-970.3591509775684	0.0	12.506900961070475	26.98994164737389
158	4.175879855102628	1.5044281324071596	-970.5749295800804	0.0	12.683704083554987	26.613718272286047
159	4.179724922006158	1.5089927149381426	-970.7896210836462	0.0	12.860061092080759	26.24874988631638
160	4.1835654258773385	1.5135617242530184	-971.0032306071969	0.0	13.035936970036587	25.89461178775775
161	4.187401299201153	1.518134862759591	-971.2157633006162	0.0	13.211297375472192	25.550899168728428
162	4.191232475883027	1.5227118392748105	-971.4272243423856	0.0	13.386109436260794	25.217224521889825
163	4.195058891243049	1.5272923689276965	-971.63761893731	0.0	13.560340895914862	24.893218372590376
164	4.198880482016096	1.5318761730712498	-971.8469523143269	0.0	13.73396049031952	24.57852761166078
165	4.202697186345721	1.5364629791846172	-972.0552297243901	0.0	13.906937970184387	24.272814608973256
166	4.20650894377733	1.54105252078014	-972.2624564384298	0.0	14.079244009850994	23.97575657418761
167	4.210315695254063	1.5456445373090193	-972.4686377453861	0.0	14.250849888469975	23.687045318040205
168	4.214117383107382	1.5502387740667458	-972.6737789503113	0.0	14.421729180800472	23.406383721181513
169	4.217913951050213	1.554834982099755	-972.8778853725423	0.0	14.59185431984005	23.133490763391663
170	4.221705344167813	1.559432918110525	-973.0809623439375	0.0	14.761200050600587	22.868095139395
171	4.225491508908201	1.5640323443647575	-973.2830152071781	0.0	14.929741680941305	22.609937555697456
172	4.229272393071376	1.5686330285973829	-973.484049314132	0.0	15.097455406789589	22.358769609411773
173	4.233047945800159	1.5732347439198584	-973.6840700242769	0.0	15.264318337557366	22.114353203589815
174	4.23681811756691	1.5778372687278597	-973.8830827031815	0.0	15.430308479353977	21.87646005784255
175	4.240582860162955	1.5824403866092493	-974.0810927210426	0.0	15.595404462162668	21.644871599692124
176	4.244342126685789	1.5870438862526697	-974.2781054512778	0.0	15.759586178115532	21.419377597460535
177	4.248095871526005	1.591647561357569	-974.4741262691693	0.0	15.922834091415353	21.199776697464248
178	4.251844050354519	1.5962512105433102	-974.6691605505602	0.0	16.085129541502123	20.98587557270323
179	4.255586620108702	1.600854637260246	-974.863213670598	0.0	16.246454747952498	20.77748852692422
180	4.259323538978467	1.6054576497021278	-975.0562910025292	0.0	16.406792590930397	20.574437401944024
181	4.263054766392119	1.6100600607172277	-975.2483979165364	0.0	16.5661268122538	20.37655095571805
182	4.266780263001556	1.6146616877230424	-975.4395397786232	0.0	16.72444206518355	20.183664472221775
183	4.27049999066753	1.6192623526191927	-975.6297219495398	0.0	16.881723538561065	19.99561989969354
184	4.2742139124450045	1.6238618817042174	-975.8189497837546	0.0	17.037957276976854	19.812265146650955
185	4.2779219925668155	1.6284601055899164	-976.0072286284607	0.0	17.19313011044962	19.63345388304916
186	4.281624196429882	1.6330568591196557	-976.1945638226263	0.0	17.347229351374157	19.459045608458318
187	4.285320490577751	1.6376519812856891	-976.3809606960823	0.0	17.500243291449653	19.288904817323502
188	4.289010842686504	1.642245315149969	-976.5664245686446	0.0	17.652160699553907	19.122901319230973
189	4.29269522154722	1.6468367077612311	-976.7509607492743	0.0	17.802971073918833	18.960909711486256
190	4.296373597052449	1.6514260100793778	-976.9345745352718	0.0	17.95266469348458	18.802809103390913
