T(K)	v(ω₀)	w(ω₀)	E(meV)	Reχ(m₀/ω₀)	Imχ(m₀/ω₀)	μ(cm²V⁻¹s⁻¹)
1	15.293473526454159	15.155436874240676	-6.866752709184567	-5.791641412021183e-31	7.610777341122248e-17	7.028080757274471e16
2	15.246361061872397	15.108260654740748	-6.869945035705086	9.893152205737463e-32	5.68077212918733e-17	9.415825272099726e16
3	15.199033689985784	15.06086920431291	-6.873155761773526	3.59068582600949e-32	9.541873552108647e-17	5.605729051735477e16
4	15.151401833722494	15.013173403598659	-6.876385264309036	1.7494532819345165e-32	4.213683738263141e-16	1.2694155779496112e16
5	15.10345809826256	14.965165867741424	-6.879633937423861	1.0016130768276893e-32	3.459391179453093e-16	1.5462014847218902e16
6	15.05519470139497	14.916838825126694	-6.882902193856777	-1.1371950762890641e-32	2.2012178627588146e-16	2.429980179790254e16
7	15.006603446816833	14.868184090704512	-6.886190466576721	-7.736463751391279e-33	2.439489589603776e-16	2.192637263425649e16
8	14.957675669054309	14.819193011021726	-6.889499210822046	-5.541636565983566e-33	5.343863913348868e-16	1.00094535801009e16
9	14.908402199186277	14.769856429990433	-6.892828905948876	-4.12888785280152e-33	3.329268469611455e-14	1.6066339577980722e14
10	14.85877329615106	14.720164620308205	-6.896180058350988	-3.173340539922698e-33	6.585083840816024e-13	8.122775513882215e12
11	14.808778581492678	14.670107218307189	-6.8995532044968835	-4.798286441776662e-33	7.513782497497471e-12	7.118805714279972e11
12	14.758406950462618	14.619673135182657	-6.902948915486562	-3.860949337616648e-33	5.6795347912895526e-11	9.417876594589357e10
13	14.70764645859498	14.568850443683253	-6.906367804847903	-3.161325596867742e-33	3.1308211532017176e-10	1.7084705628854406e10
14	14.656484067141115	14.517626124365195	-6.90981054391419	-2.0694896285684067e-33	1.34724999699056e-9	3.9702473853051805e9
15	14.604905992097736	14.465986410470098	-6.913277892013206	1.2622068392791135e-33	4.7571620242810295e-9	1.1243921797497718e9
16	14.552896408813698	14.413915499786773	-6.91677075073413	-2.8787463819791386e-33	1.4308191368302836e-8	3.738359126055388e8
17	14.50043828625888	14.36139637968547	-6.920290251143313	-2.4743779328885477e-33	3.7718364248820505e-8	1.418119763258676e8
18	14.447512628434657	14.308410070263486	-6.923837879336982	-2.14532602139645e-33	8.910055386570984e-8	6.0032351605422534e7
19	14.394098418932384	14.254935564924123	-6.927415639847038	0.0	1.919372763282493e-7	2.786804043606683e7
20	14.340172561792858	14.200949767122506	-6.931026249762791	0.0	3.8234532592065437e-7	1.3989750665905116e7
21	14.285709961044493	14.146427565064805	-6.93467335074692	0.0	7.12318969255062e-7	7.509158128272284e6
22	14.23068364922966	14.091341955817294	-6.9383617226283905	0.0	1.2526324841066808e-6	4.270139762277345e6
23	14.175065754191305	14.035665002541798	-6.942097481410855	0.0	2.0951270532435845e-6	2.553026924846025e6
24	14.118826936115173	13.979367274984773	-6.945888246118931	0.0	3.3541868534584943e-6	1.5946982119940422e6
25	14.061938195303988	13.922419644416655	-6.949743262235485	0.0	5.167301575997075e-6	1.0351468168126155e6
26	14.004371088782714	13.864793500984819	-6.953673473772495	0.0	7.694706593893811e-6	695142.2660025599
27	13.946098672246546	13.806461692392881	-6.9576915404949435	0.0	1.1118156679369614e-5	481097.3556281508
28	13.887096340794727	13.747399363356806	-6.96181180092729	0.0	1.5638964620920953e-5	342024.9298824231
29	13.827342644999323	13.68758477153208	-6.966050185131588	0.0	2.1475443686039762e-5	249071.25813569466
30	13.76682004851918	13.627000046065419	-6.970424083715846	0.0	2.885993188640549e-5	185340.5544738585
31	13.70551560426067	13.565631865644622	-6.974952181080017	0.0	3.8035553924924976e-5	140629.3645272509
32	13.643421528039523	13.503472034866943	-6.979654261627502	0.0	4.9252879041313544e-5	108601.07839416835
33	13.580535661044898	13.440517950047402	-6.984550997712397	0.0	6.27665996395191e-5	85219.14216516518
34	13.516861812348772	13.376772945559175	-6.989663727618054	0.0	7.883234899649813e-5	67851.78731819589
35	13.452409984000832	13.3122465230699	-6.995014231028224	0.0	9.770373324690854e-5	54746.27836775549
36	13.38719648022636	13.24695446505492	-7.000624508407785	0.0	0.0001196296331200171	44712.29776771065
37	13.321243908451539	13.180918840178732	-7.006516569569787	0.0	0.00014485182882224208	36926.80873548525
38	13.254581082322709	13.114167910596846	-7.012712235554689	0.0	0.00017360296115039543	30811.201274788855
39	13.187242835214322	13.046735949595718	-7.019232956858616	0.0	0.00020610481475111033	25952.40574250276
40	13.11926975742189	12.978662982689752	-7.026099650058691	0.0	0.00024256695078425005	22051.29660331077
41	13.050707868447553	12.909994463536764	-7.033332554012305	0.0	0.00028318565591292996	18888.371166471774
42	12.98160823504026	12.840780895303682	-7.040951106079551	0.0	0.0003281431625908021	16300.55532979164
43	12.912026547044908	12.771077409515744	-7.0489738382154306	0.0	0.00037760716893204475	14165.291917079014
44	12.84202266109008	12.700943312413758	-7.057418292308406	0.0	0.00043173056125784875	12389.476812389876
45	12.771660121288141	12.630441607998659	-7.066300953784025	0.0	0.0004906513708027414	10901.662761387923
46	12.701005666193193	12.559638507017265	-7.075637202239673	0.0	0.0005544929122233135	9646.499819911116
47	12.630128729202285	12.48860292909418	-7.085441277705221	0.0	0.0006233640110435272	8580.726001409614
48	12.559100939553556	12.417406005181808	-7.095726261030899	0.0	0.0006973594882791156	7670.24162975653
49	12.487995629641464	12.34612058607351	-7.106504066868468	0.0	0.0007765605695689946	6887.9569572698365
50	12.416887353606436	12.274820761960648	-7.117785447716806	0.0	0.0008610355183968992	6212.189466774785
51	12.345851421339288	12.203581397200669	-7.129580007554867	0.0	0.0009508402575639876	5625.462043022745
52	12.2749634516769	12.132477684093772	-7.141896223648683	0.0	0.0010460190302651884	5113.5931786519395
53	12.204298947557685	12.061584718461583	-7.154741475214396	0.0	0.0011466051269740946	4665.00249481706
54	12.133932894982273	11.990977098896193	-7.168122077718174	0.0	0.0012526215749145725	4270.176951302291
55	12.06393938813824	11.920728552055404	-7.182043321699047	0.0	0.0013640818746650954	3921.257130711036
56	11.994391281173685	11.850911584510195	-7.196509515111455	0.0	0.0014809906936183955	3611.71464544154
57	11.925359868196225	11.781597162734199	-7.2115240282942725	0.0	0.0016033445645349048	3336.098737738128
58	11.856914591462205	11.712854421215255	-7.227089340773635	0.0	0.0017311325822359073	3089.8360026218193
59	11.789122777806249	11.644750398753013	-7.243207089210267	0.0	0.0018643370000155908	2869.0712987294964
60	11.722049404012653	11.577349803648122	-7.259878115892325	0.0	0.0020029339940718827	2670.540214373244
61	11.655756889257292	11.510714805930842	-7.277102517263045	0.0	0.002146894001605184	2491.4671026631586
62	11.590304916118226	11.44490485811925	-7.2948796920514365	0.0	0.0022961825962690115	2329.4818916385193
63	11.525750276988477	11.379976541364012	-7.313208388642832	0.0	0.002450760880378134	2182.5531085998427
64	11.462146747496002	11.315983438569985	-7.332086751395079	0.0	0.0026105856720426315	2048.9332471203547
65	11.399544983880402	11.252976031463142	-7.351512365658469	0.0	0.002775610639251827	1927.1131556643684
66	11.337992444456036	11.191001621725087	-7.371482301312042	0.0	0.00294578619985512	1815.78546948426
67	11.277533333516551	11.130104274555437	-7.391993154669926	0.0	0.0031210600439703627	1713.8138012557172
68	11.218208566464185	11.070324783445917	-7.41304108865263	0.0	0.0033013776201171823	1620.207196326218
69	11.160055754971028	11.011700654972897	-7.434621871148291	0.0	0.00348668251362554	1534.098891138283
70	11.103109210634036	10.95426611207181	-7.456730911520867	0.0	0.0036769164490191683	1454.7286706313457
71	11.047399966155501	10.898052114822587	-7.479363295243399	0.0	0.00387201996115336	1381.427738381519
72	10.992955811855696	10.843086396557498	-7.502513816656234	0.0	0.004071932410405883	1313.606228884092
73	10.939801347245139	10.789393515012014	-7.5261770098672525	0.0	0.00427659230234366	1250.7425070593865
74	10.887958045432697	10.736994916300201	-7.550347177822184	0.0	0.004485937595034944	1192.374094509114
75	10.837444329118043	10.685909010461803	-7.575018419589336	0.0	0.004699905762486553	1138.0900061013697
76	10.788275657293827	10.636151257704343	-7.600184655907275	0.0	0.004918434030772341	1087.5241478158537
77	10.740464620647593	10.587734263334726	-7.6258396530515276	0.0	0.005141459561694424	1040.3496738076822
78	10.694021045149137	10.540667880861545	-7.651977045086129	0.0	0.005368919532242058	996.2741564261216
79	10.648952101923838	10.494959321374134	-7.678590354562193	0.0	0.0056007514337037	955.0353807376556
80	10.605262422565968	10.450613268350772	-7.705673011734389	0.0	0.00583689292513604	916.3977901444059
81	10.562954218870575	10.407631996875342	-7.733218372364201	0.0	0.00607728216187622	880.1493225802157
82	10.522027405541191	10.366015495823483	-7.76121973418085	0.0	0.006321857815504262	846.0987156000325
83	10.48247972532773	10.325761592470954	-7.789670352068873	0.0	0.006570559114796026	814.0731533575484
84	10.444306875323749	10.286866078257654	-7.818563452054182	0.0	0.0068233260067986	783.9161975515535
85	10.407502633621013	10.249322834905573	-7.847892244154073	0.0	0.007080096422085391	755.4862898786198
86	10.372058985727826	10.213123960299251	-7.877649934157358	0.0	0.007340819829724555	728.6537337757937
87	10.337966249884293	10.178259893262684	-7.907829734403508	0.0	0.00760543068544575	703.3021533074016
88	10.305213200496194	10.144719536458958	-7.9384248736155705	0.0	0.00787387444423498	679.3244946673619
89	10.273787189351994	10.112490377075408	-7.969428605853756	0.0	0.008146095283531146	656.6232767640241
90	10.243674263995278	10.081558604671269	-8.00083421864328	0.0	0.008422038222696595	635.109416089963
91	10.214859282835684	10.051909225770446	-8.032635040330195	0.0	0.008701649267377405	614.7013759744762
92	10.187326026565687	10.023526174770037	-8.064824446721722	0.0	0.008984875121929352	595.3244430575451
93	10.161057305654008	9.99639242093563	-8.097395867055555	0.0	0.009271663734460797	576.910027271956
94	10.136035063542328	9.970490071112566	-8.130342789349331	0.0	0.009561963995707414	559.3950971061422
95	10.112240475589898	9.945800468197326	-8.163658765171006	0.0	0.009855725826124791	542.7216495537746
96	10.089654043131226	9.922304284738313	-8.197337413875314	0.0	0.010152900143265978	526.8362440708048
97	10.068255683138704	9.899981612155319	-8.231372426344102	0.0	0.010453438879754837	511.68958267536453
98	10.048024813023185	9.878812045113841	-8.265757568267414	0.0	0.010757294977586805	497.23613501803516
99	10.028940430657192	9.85877476113924	-8.300486683000731	0.0	0.011064422358115084	483.43380293875697
100	10.010981189627048	9.839848595477427	-8.335553694032525	0.0	0.011374775969042355	470.2436155632266
101	9.99412546982737	9.82201211131547	-8.370952607090063	0.0	0.011688311811456733	457.62945617700285
102	9.97835144344369	9.805243665408806	-8.406677511914044	0.0	0.012004986589457815	445.5578303270523
103	9.963637136251613	9.78952146904383	-8.442722583729193	0.0	0.012324758287157041	433.99762115237564
104	9.949960484607045	9.774823644709786	-8.4790820844339	0.0	0.012647585744112367	422.9199063065597
105	9.937299388158445	9.761128278510663	-8.515750363534814	0.0	0.012973428745840503	412.2977728319612
106	9.925631758341916	9.748413468378994	-8.552721858845855	0.0	0.013302248013956481	402.1061532075027
107	9.914935562905363	9.736657368336381	-8.589991096973678	0.0	0.013634005189197548	392.321676842416
108	9.905188866631837	9.725838228971078	-8.627552693607175	0.0	0.013968662817024998	382.9225351037129
109	9.89636986847844	9.715934434347766	-8.665401353629258	0.0	0.01430618438931942	373.8883571148102
110	9.888456935041674	9.706924535262269	-8.703531871067026	0.0	0.014646534103797565	365.2001039971164
111	9.881428631022015	9.698787279509693	-8.74193912889546	0.0	0.014989677347829633	356.8399541754417
112	9.875263746332138	9.691501638813843	-8.780618098707725	0.0	0.015335579786544854	348.7912326990872
113	9.869941320388428	9.685046832954296	-8.819563840266616	0.0	0.015684208394572432	341.03830064864434
114	9.865440663708616	9.679402351213826	-8.858771500948242	0.0	0.016035530817184923	333.5664929889236
115	9.861741376727018	9.67454797105877	-8.89823631508824	0.0	0.016389515472660748	326.36204449281473
116	9.858823366460207	9.670463774681538	-8.937953603242205	0.0	0.016746131549748963	319.41202432417106
117	9.85666686075991	9.667130163143804	-8.977918771369467	0.0	0.017105348990405424	312.7042763584916
118	9.855252420460356	9.66452786842682	-9.01812730994706	0.0	0.017467138472576582	306.22736439068046
119	9.85456094976225	9.662637963727967	-9.058574793025494	0.0	0.017831471393060152	299.97052178127785
120	9.854573704645109	9.661441871798143	-9.099256877229298	0.0	0.01819831985049424	293.9236051375872
121	9.855272299766366	9.660921371774924	-9.140169300713582	0.0	0.01856765662847947	288.0770516673548
122	9.856638713731737	9.661058604397123	-9.181307882079011	0.0	0.01893945517889337	282.42183987769386
123	9.858655293174175	9.661836076035593	-9.222668519253611	0.0	0.019313689605373306	276.94945332537856
124	9.861304755291894	9.663236661193073	-9.264247188345093	0.0	0.019690334647047412	271.65184715163076
125	9.864570189496675	9.665243604120583	-9.306039942469289	0.0	0.020069365662474838	266.5214171619506
126	9.868435057818152	9.667840519197727	-9.34804291055899	0.0	0.020450758613857364	261.55097123290943
127	9.872883194540714	9.671011390551358	-9.390252296156063	0.0	0.020834489928008598	256.73370437129984
128	9.877898804806224	9.674740570647256	-9.43266437619337	0.0	0.02122053697117846	252.06316810781144
129	9.88346646258343	9.679012778253288	-9.475275499766079	0.0	0.021608877308191617	247.5332568932901
130	9.88957110789119	9.683813095661892	-9.518082086897824	0.0	0.02199948815415422	243.13819214444467
131	9.896198043418444	9.689126965313857	-9.561080627305687	0.0	0.022392350326347055	238.8724586722188
132	9.903332930616315	9.694940185898687	-9.604267679161177	0.0	0.022787442933357743	234.73084687681617
133	9.910961785333393	9.701238908001729	-9.647639867856734	0.0	0.023184743892388053	230.7084263139229
134	9.91907097295717	9.708009629261705	-9.691193884774	0.0	0.023584234436453595	226.800483700946
135	9.927647203275917	9.715239189251125	-9.734926486057851	0.0	0.023985895308890417	223.00254833187725
136	9.936677525023226	9.722914764042523	-9.778834491399357	0.0	0.02438970760620654	219.31036912238443
137	9.946149320080169	9.731023860435212	-9.82291478282544	0.0	0.024795653028671674	215.71989944040322
138	9.956050297558463	9.739554310064813	-9.867164303500656	0.0	0.025203713599303894	212.22728773000802
139	9.966368487635052	9.748494263266522	-9.911580056539295	0.0	0.02561387193159162	208.8288639917396
140	9.977092235234869	9.75783218278852	-9.956159103830307	0.0	0.02602611093837667	205.52113185750568
141	9.98821019364153	9.767556837434471	-10.000898564874936	0.0	0.026440413830026255	202.30075869046527
142	9.999711318017635	9.777657295617024	-10.045795615639834	0.0	0.026856764368429504	199.1645644473803
143	10.01158485879562	9.788122918783612	-10.09084748742338	0.0	0.027275146621234477	196.10951509019205
144	10.023820355108393	9.798943354882292	-10.136051465738898	0.0	0.02769554508549503	193.1327136329072
145	10.036407628190126	9.810108531798605	-10.181404889212809	0.0	0.028117944556579514	190.23139359070092
146	10.049336774735766	9.82160865075277	-10.226905148500421	0.0	0.028542330199073266	187.40291141603623
147	10.062598160352985	9.83343417978827	-10.272549685216644	0.0	0.02896868751674647	184.64474011161312
148	10.07618241297589	9.845575847223989	-10.318335990885974	0.0	0.029397002343136264	181.95446309351576
149	10.090080416402039	9.858024635228992	-10.36426160590824	0.0	0.029827260832414926	179.32976842751924
150	10.104283303815393	9.870771773384146	-10.41032411854245	0.0	0.030259449462976037	176.76844334028127
151	10.118782451444277	9.883808732378235	-10.456521163908487	0.0	0.030693554985804516	174.2683693817157
152	10.133569472270665	9.89712721775558	-10.502850423006114	0.0	0.03112956447021568	171.82751731145962
153	10.148636209862257	9.910719163786327	-10.549309621751936	0.0	0.031567465267021554	169.4439427638234
154	10.16397473220804	9.92457672734044	-10.59589653003471	0.0	0.03200724500627875	167.11578196920428
155	10.179577325787585	9.93869228199446	-10.642608960787465	0.0	0.03244889220768111	164.8412446153715
156	10.195436489661823	9.953058412159967	-10.689444769077602	0.0	0.03289239371603387	162.61862314072863
157	10.211544929679052	9.967667907326861	-10.73640185121592	0.0	0.03333773817615868	160.44627111893976
158	10.227895552822035	9.982513756447435	-10.783478143880927	0.0	0.03378491531072113	158.3226042957339
159	10.244481461662495	9.997589142426909	-10.830671623262182	0.0	0.034233913467174956	156.24610908224
160	10.261295948947383	10.012887436745867	-10.877980304221158	0.0	0.03468472179670358	154.2153288486962
161	10.27833249227169	10.028402194168503	-10.925402239467035	0.0	0.035137329679958605	152.22886390695368
162	10.295584748882552	10.044127147581811	-10.972935518752239	0.0	0.03559172672060976	150.28536884126044
163	10.313046550634771	10.060056202985281	-11.020578268082197	0.0	0.036047902739235985	148.3835499834005
164	10.33071189906671	10.076183434600512	-11.06832864894344	0.0	0.03650584774630125	146.52216310867982
165	10.348574960540839	10.092503080045313	-11.11618485754674	0.0	0.03696555201377214	144.70001086177083
166	10.366630061553584	10.109009535676163	-11.164145124086826	0.0	0.037427005966406655	142.9159410374746
167	10.38487168418763	10.125697352072262	-11.21220771201797	0.0	0.03789020023577539	141.16884430855586
168	10.40329446161102	10.14256122956646	-11.260370917344735	0.0	0.038355125642059854	139.4576523571237
169	10.421893173752716	10.159596013951484	-11.308633067928472	0.0	0.03882177318900502	137.78133605239566
170	10.440662743079216	10.176796692286798	-11.35699252280851	0.0	0.03929013408852228	136.1389036202538
171	10.459598230489398	10.194158388822881	-11.405447671538626	0.0	0.039760199173417825	134.52940098650882
172	10.478694831301654	10.211676361017586	-11.453996933537153	0.0	0.04023196098661886	132.95190308230892
173	10.497947871368806	10.229345995679312	-11.502638757452486	0.0	0.0407054165958448	131.40550386727156
174	10.51735280329368	10.247162805210381	-11.551371620541861	0.0	0.041180540391360494	129.88940230192713
175	10.536905202794353	10.265122423999136	-11.600194028064259	0.0	0.04165734154754535	128.40271556453573
176	10.556600765081313	10.283220604823995	-11.649104512686097	0.0	0.04213580654705893	126.9446633691538
177	10.576435301433962	10.30145321545564	-11.698101633901636	0.0	0.0426159281594345	125.51447331835287
178	10.59640473582585	10.31981623530753	-11.747183977464184	0.0	0.043097697600560196	124.11140445318493
179	10.616505101640417	10.338305752176614	-11.796350154832467	0.0	0.04358110908703215	122.73473277658711
180	10.636732538525699	10.356917959121919	-11.845598802627126	0.0	0.04406615460227502	121.38376552666188
181	10.657083289292505	10.375649151386485	-11.894928582101052	0.0	0.04455282701163544	120.05783104419521
182	10.677553696956899	10.394495723462635	-11.944338178621036	0.0	0.045041119039429575	118.75628074918994
183	10.698140201803486	10.41345416617802	-11.993826301160677	0.0	0.045531024049532576	117.47848614353967
184	10.718839338608397	10.432521063940191	-12.043391681805895	0.0	0.04602253528820846	116.22384000376094
185	10.73964773389115	10.451693092010057	-12.09303307527052	0.0	0.04651564565115582	114.99175606458068
186	10.760562103262757	10.470967013870803	-12.142749258422729	0.0	0.047010349689356565	113.78166325606405
187	10.781579248889146	10.490339678711475	-12.192539029823676	0.0	0.04750663985829176	112.59301423673703
188	10.802696056963999	10.509808018919788	-12.242401209274849	0.0	0.04800451134370032	111.42527292085698
189	10.8239094953175	10.529369047710304	-12.292334637376213	0.0	0.04850395658548954	110.2779268836878
